# Electrodo circular de radio 6 mm y espesor 710.0 um.
# Volumen de simulacion (convencion z,y,x):
# N: 1024 x 1024 x 1024 | voxelSize:  0.02mm x 0.02mm x 0.02mm | FOV:  20.48mm x 20.48mm x 20.48mm
# 
# z [mm]		 delta[ppm]
0.000000000000000000e+00 2.723056227718546385e+00
2.000000000000000042e-02 2.718325330718142308e+00
4.000000000000000083e-02 2.713459137486393669e+00
5.999999999999999778e-02 2.708459289711432127e+00
8.000000000000000167e-02 2.703327382360433351e+00
1.000000000000000056e-01 2.698065038099613844e+00
1.199999999999999956e-01 2.692673909364117879e+00
1.400000000000000133e-01 2.687155682126155742e+00
1.600000000000000033e-01 2.681512067905440944e+00
1.799999999999999933e-01 2.675744809528866064e+00
2.000000000000000111e-01 2.669855672402220215e+00
2.200000000000000011e-01 2.663846450583299941e+00
2.399999999999999911e-01 2.657718958189327019e+00
2.600000000000000089e-01 2.651475035467120378e+00
2.800000000000000266e-01 2.645116540076375866e+00
2.999999999999999889e-01 2.638645353294232887e+00
3.200000000000000067e-01 2.632063371162129961e+00
3.400000000000000244e-01 2.625372510878128285e+00
3.599999999999999867e-01 2.618574701728569654e+00
3.800000000000000044e-01 2.611671891714731686e+00
4.000000000000000222e-01 2.604666038274428441e+00
4.199999999999999845e-01 2.597559115163714072e+00
4.400000000000000022e-01 2.590353102942124064e+00
4.600000000000000200e-01 2.583049996127577685e+00
4.799999999999999822e-01 2.575651793455173699e+00
5.000000000000000000e-01 2.568160505314326159e+00
5.200000000000000178e-01 2.560578143772061832e+00
5.400000000000000355e-01 2.552906730300537053e+00
5.600000000000000533e-01 2.545148285575406177e+00
5.799999999999999600e-01 2.537304837497645238e+00
5.999999999999999778e-01 2.529378410764952623e+00
6.199999999999999956e-01 2.521371035191321219e+00
6.400000000000000133e-01 2.513284735061598330e+00
6.600000000000000311e-01 2.505121537749865013e+00
6.800000000000000488e-01 2.496883462858328073e+00
7.000000000000000666e-01 2.488572531135154531e+00
7.199999999999999734e-01 2.480190753407093052e+00
7.399999999999999911e-01 2.471740139795854496e+00
7.600000000000000089e-01 2.463222688447159747e+00
7.800000000000000266e-01 2.454640395044369150e+00
8.000000000000000444e-01 2.445995241342570292e+00
8.200000000000000622e-01 2.437289204977004520e+00
8.399999999999999689e-01 2.428524247805605274e+00
8.599999999999999867e-01 2.419702326009415483e+00
8.800000000000000044e-01 2.410825378251429729e+00
9.000000000000000222e-01 2.401895336065245967e+00
9.200000000000000400e-01 2.392914111833963631e+00
9.400000000000000577e-01 2.383883609462982722e+00
9.599999999999999645e-01 2.374805712186101481e+00
9.799999999999999822e-01 2.365682293517628043e+00
1.000000000000000000e+00 2.356515204889545689e+00
1.020000000000000018e+00 2.347306286877722581e+00
1.040000000000000036e+00 2.338057356676726872e+00
1.060000000000000053e+00 2.328770219594347601e+00
1.080000000000000071e+00 2.319446656367902371e+00
1.100000000000000089e+00 2.310088434920949396e+00
1.120000000000000107e+00 2.300697297527192653e+00
1.140000000000000124e+00 2.291274972822734846e+00
1.159999999999999920e+00 2.281823162821431605e+00
1.179999999999999938e+00 2.272343555175764251e+00
1.199999999999999956e+00 2.262837810049366905e+00
1.219999999999999973e+00 2.253307572619171140e+00
1.239999999999999991e+00 2.243754459808937174e+00
1.260000000000000009e+00 2.234180073025095581e+00
1.280000000000000027e+00 2.224585984756727530e+00
1.300000000000000044e+00 2.214973751537161473e+00
1.320000000000000062e+00 2.205344900414276665e+00
1.340000000000000080e+00 2.195700942129727551e+00
1.360000000000000098e+00 2.186043357464838355e+00
1.380000000000000115e+00 2.176373610629033895e+00
1.400000000000000133e+00 2.166693135485277644e+00
1.419999999999999929e+00 2.157003349139148263e+00
1.439999999999999947e+00 2.147305638049003651e+00
1.459999999999999964e+00 2.137601371806896910e+00
1.479999999999999982e+00 2.127891889137566217e+00
1.500000000000000000e+00 2.118178511862276459e+00
1.520000000000000018e+00 2.108462530791816558e+00
1.540000000000000036e+00 2.098745219864190048e+00
1.560000000000000053e+00 2.089027821935875995e+00
1.580000000000000071e+00 2.079311563084215386e+00
1.600000000000000089e+00 2.069597638302194120e+00
1.620000000000000107e+00 2.059887225956239742e+00
1.640000000000000124e+00 2.050181473389002029e+00
1.660000000000000142e+00 2.040481511523236868e+00
1.679999999999999938e+00 2.030788440377956583e+00
1.699999999999999956e+00 2.021103343809011577e+00
1.719999999999999973e+00 2.011427274943328847e+00
1.739999999999999991e+00 2.001761271046744284e+00
1.760000000000000009e+00 1.992106338881912908e+00
1.780000000000000027e+00 1.982463469693897196e+00
1.800000000000000044e+00 1.972833624496752147e+00
1.820000000000000062e+00 1.963217749167398773e+00
1.840000000000000080e+00 1.953616759666656044e+00
1.860000000000000098e+00 1.944031557231877594e+00
1.880000000000000115e+00 1.934463013537745413e+00
1.900000000000000133e+00 1.924911985978195794e+00
1.919999999999999929e+00 1.915379302772949988e+00
1.939999999999999947e+00 1.905865778329257632e+00
1.959999999999999964e+00 1.896372198299790535e+00
1.979999999999999982e+00 1.886899335014708079e+00
2.000000000000000000e+00 1.877447932497181782e+00
2.020000000000000018e+00 1.868018721956361983e+00
2.040000000000000036e+00 1.858612406766428693e+00
2.060000000000000053e+00 1.849229678011050426e+00
2.080000000000000071e+00 1.839871199432473903e+00
2.100000000000000089e+00 1.830537623018101190e+00
2.120000000000000107e+00 1.821229573925843503e+00
2.140000000000000124e+00 1.811947666103471688e+00
2.160000000000000142e+00 1.802692487196998927e+00
2.180000000000000160e+00 1.793464614193500006e+00
2.200000000000000178e+00 1.784264598319046824e+00
2.220000000000000195e+00 1.775092980695732292e+00
2.240000000000000213e+00 1.765950277236179478e+00
2.260000000000000231e+00 1.756836994305556177e+00
2.280000000000000249e+00 1.747753613619431379e+00
2.300000000000000266e+00 1.738700607901618733e+00
2.319999999999999840e+00 1.729678425792646079e+00
2.339999999999999858e+00 1.720687507494285340e+00
2.359999999999999876e+00 1.711728269695693472e+00
2.379999999999999893e+00 1.702801121195536949e+00
2.399999999999999911e+00 1.693906447853281483e+00
2.419999999999999929e+00 1.685044628179881210e+00
2.439999999999999947e+00 1.676216018321498913e+00
2.459999999999999964e+00 1.667420967609754889e+00
2.479999999999999982e+00 1.658659803585568193e+00
2.500000000000000000e+00 1.649932847500010569e+00
2.520000000000000018e+00 1.641240399385770932e+00
2.540000000000000036e+00 1.632582753499694173e+00
2.560000000000000053e+00 1.623960183449747685e+00
2.580000000000000071e+00 1.615372957570358814e+00
2.600000000000000089e+00 1.606821324112580829e+00
2.620000000000000107e+00 1.598305526543396526e+00
2.640000000000000124e+00 1.589825788807120110e+00
2.660000000000000142e+00 1.581382330539852443e+00
2.680000000000000160e+00 1.572975352410001415e+00
2.700000000000000178e+00 1.564605051239119859e+00
2.720000000000000195e+00 1.556271605429712768e+00
2.740000000000000213e+00 1.547975189983719302e+00
2.760000000000000231e+00 1.539715962025645757e+00
2.780000000000000249e+00 1.531494075709981306e+00
2.800000000000000266e+00 1.523309667847947635e+00
2.819999999999999840e+00 1.515162872695178464e+00
2.839999999999999858e+00 1.507053807690244884e+00
2.859999999999999876e+00 1.498982588113944692e+00
2.879999999999999893e+00 1.490949312948011807e+00
2.899999999999999911e+00 1.482954079397380553e+00
2.919999999999999929e+00 1.474996968877375192e+00
2.939999999999999947e+00 1.467078061390314714e+00
2.959999999999999964e+00 1.459197421649683246e+00
2.979999999999999982e+00 1.451355113302521760e+00
3.000000000000000000e+00 1.443551185198916675e+00
3.020000000000000018e+00 1.435785685451630878e+00
3.040000000000000036e+00 1.428058647859471453e+00
3.060000000000000053e+00 1.420370105795614180e+00
3.080000000000000071e+00 1.412720078793311851e+00
3.100000000000000089e+00 1.405108586254372405e+00
3.120000000000000107e+00 1.397535634205825383e+00
3.140000000000000124e+00 1.390001228820065160e+00
3.160000000000000142e+00 1.382505363350977623e+00
3.180000000000000160e+00 1.375048031457241304e+00
3.200000000000000178e+00 1.367629214326581577e+00
3.220000000000000195e+00 1.360248893793790437e+00
3.240000000000000213e+00 1.352907039661609634e+00
3.260000000000000231e+00 1.345603622605018090e+00
3.280000000000000249e+00 1.338338601697468322e+00
3.300000000000000266e+00 1.331111937092975595e+00
3.320000000000000284e+00 1.323923577766279003e+00
3.339999999999999858e+00 1.316773473964309105e+00
3.359999999999999876e+00 1.309661565168985575e+00
3.379999999999999893e+00 1.302587792309647385e+00
3.399999999999999911e+00 1.295552085957089261e+00
3.419999999999999929e+00 1.288554378288531366e+00
3.439999999999999947e+00 1.281594591521609150e+00
3.459999999999999964e+00 1.274672649623533660e+00
3.479999999999999982e+00 1.267788466993607477e+00
3.500000000000000000e+00 1.260941959908165932e+00
3.520000000000000018e+00 1.254133035460385903e+00
3.540000000000000036e+00 1.247361602732643515e+00
3.560000000000000053e+00 1.240627562002184492e+00
3.580000000000000071e+00 1.233930815632525935e+00
3.600000000000000089e+00 1.227271257553747663e+00
3.620000000000000107e+00 1.220648783864588749e+00
3.640000000000000124e+00 1.214063282595916116e+00
3.660000000000000142e+00 1.207514644015188043e+00
3.680000000000000160e+00 1.201002750681831044e+00
3.700000000000000178e+00 1.194527487445712577e+00
3.720000000000000195e+00 1.188088731803015108e+00
3.740000000000000213e+00 1.181686363580402910e+00
3.760000000000000231e+00 1.175320255600071251e+00
3.780000000000000249e+00 1.168990283041309031e+00
3.800000000000000266e+00 1.162696314423280031e+00
3.820000000000000284e+00 1.156438220635659597e+00
3.839999999999999858e+00 1.150215866247850771e+00
3.859999999999999876e+00 1.144029118200384776e+00
3.879999999999999893e+00 1.137877837449112084e+00
3.899999999999999911e+00 1.131761887309064685e+00
3.919999999999999929e+00 1.125681125442295816e+00
3.939999999999999947e+00 1.119635411845921302e+00
3.959999999999999964e+00 1.113624601192112484e+00
3.979999999999999982e+00 1.107648550452039027e+00
4.000000000000000000e+00 1.101707111596672117e+00
4.020000000000000462e+00 1.095800138848335603e+00
4.040000000000000036e+00 1.089927481750808891e+00
4.060000000000000497e+00 1.084088992040242116e+00
4.080000000000000071e+00 1.078284517093161865e+00
4.099999999999999645e+00 1.072513906408497419e+00
4.120000000000000107e+00 1.066777005441942761e+00
4.139999999999999680e+00 1.061073661690837611e+00
4.160000000000000142e+00 1.055403718923505707e+00
4.179999999999999716e+00 1.049767022858723697e+00
4.200000000000000178e+00 1.044163415798465167e+00
4.219999999999999751e+00 1.038592741893729521e+00
4.240000000000000213e+00 1.033054842189267353e+00
4.259999999999999787e+00 1.027549559467517248e+00
4.280000000000000249e+00 1.022076733713717767e+00
4.299999999999999822e+00 1.016636206529743847e+00
4.320000000000000284e+00 1.011227817028146569e+00
4.339999999999999858e+00 1.005851405807628884e+00
4.360000000000000320e+00 1.000506811284450182e+00
4.379999999999999893e+00 9.951938732212944894e-01
4.400000000000000355e+00 9.899124295045458322e-01
4.419999999999999929e+00 9.846623192183558970e-01
4.440000000000000391e+00 9.794433798761333909e-01
4.459999999999999964e+00 9.742554500316116251e-01
4.480000000000000426e+00 9.690983669730699468e-01
4.500000000000000000e+00 9.639719688631220862e-01
4.520000000000000462e+00 9.588760929040679448e-01
4.540000000000000036e+00 9.538105769982103688e-01
4.560000000000000497e+00 9.487752583927691052e-01
4.580000000000000071e+00 9.437699748525174570e-01
4.600000000000000533e+00 9.387945637926213838e-01
4.620000000000000107e+00 9.338488629553639564e-01
4.639999999999999680e+00 9.289327100393861558e-01
4.660000000000000142e+00 9.240459428722733737e-01
4.679999999999999716e+00 9.191883995445236932e-01
4.700000000000000178e+00 9.143599180697822293e-01
4.719999999999999751e+00 9.095603370320061165e-01
4.740000000000000213e+00 9.047894947250926245e-01
4.759999999999999787e+00 9.000472303215852898e-01
4.780000000000000249e+00 8.953333824834669441e-01
4.799999999999999822e+00 8.906477910608570081e-01
4.820000000000000284e+00 8.859902951657313563e-01
4.839999999999999858e+00 8.813607354089300072e-01
4.860000000000000320e+00 8.767589514285818453e-01
4.879999999999999893e+00 8.721847846738535193e-01
4.900000000000000355e+00 8.676380753798298429e-01
4.919999999999999929e+00 8.631186659063506683e-01
4.940000000000000391e+00 8.586263971510799120e-01
4.959999999999999964e+00 8.541611124518766474e-01
4.980000000000000426e+00 8.497226534297923628e-01
5.000000000000000000e+00 8.453108644633170465e-01
5.020000000000000462e+00 8.409255879530288524e-01
5.040000000000000036e+00 8.365666693761727446e-01
5.060000000000000497e+00 8.322339519646665407e-01
5.080000000000000071e+00 8.279272823483722066e-01
5.100000000000000533e+00 8.236465046381657995e-01
5.120000000000000107e+00 8.193914666663634216e-01
5.139999999999999680e+00 8.151620134665336082e-01
5.160000000000000142e+00 8.109579941194657859e-01
5.179999999999999716e+00 8.067792546213898852e-01
5.200000000000000178e+00 8.026256453439767347e-01
5.219999999999999751e+00 7.984970132826191280e-01
5.240000000000000213e+00 7.943932101388621048e-01
5.259999999999999787e+00 7.903140839403759443e-01
5.280000000000000249e+00 7.862594877543415128e-01
5.299999999999999822e+00 7.822292706707349996e-01
5.320000000000000284e+00 7.782232871550819331e-01
5.339999999999999858e+00 7.742413873866582641e-01
5.360000000000000320e+00 7.702834272591729814e-01
5.379999999999999893e+00 7.663492580654291952e-01
5.400000000000000355e+00 7.624387371544293357e-01
5.419999999999999929e+00 7.585517169540384463e-01
5.440000000000000391e+00 7.546880562930955438e-01
5.459999999999999964e+00 7.508476087536032351e-01
5.480000000000000426e+00 7.470302346663617588e-01
5.500000000000000000e+00 7.432357887841758437e-01
5.520000000000000462e+00 7.394641329596520762e-01
5.540000000000000036e+00 7.357151231308736161e-01
5.560000000000000497e+00 7.319886226899557924e-01
5.580000000000000071e+00 7.282844887726003247e-01
5.600000000000000533e+00 7.246025863260920907e-01
5.620000000000000107e+00 7.209427736941642628e-01
5.639999999999999680e+00 7.173049173930473588e-01
5.660000000000000142e+00 7.136888769829951018e-01
5.679999999999999716e+00 7.100945205611735034e-01
5.700000000000000178e+00 7.065217089111405224e-01
5.719999999999999751e+00 7.029703117212987573e-01
5.740000000000000213e+00 6.994401910036196490e-01
5.759999999999999787e+00 6.959312180464638509e-01
5.780000000000000249e+00 6.924432560938014181e-01
5.799999999999999822e+00 6.889761780412011483e-01
5.820000000000000284e+00 6.855298483667339182e-01
5.839999999999999858e+00 6.821041415790328744e-01
5.860000000000000320e+00 6.786989233910354358e-01
5.879999999999999893e+00 6.753140699290016702e-01
5.900000000000000355e+00 6.719494481401901975e-01
5.919999999999999929e+00 6.686049357718282238e-01
5.940000000000000391e+00 6.652804010037840499e-01
5.959999999999999964e+00 6.619757232064643615e-01
5.980000000000000426e+00 6.586907717894684433e-01
6.000000000000000000e+00 6.554254277475282109e-01
6.020000000000000462e+00 6.521795617160893732e-01
6.040000000000000036e+00 6.489530563143579567e-01
6.060000000000000497e+00 6.457457833987191309e-01
6.080000000000000071e+00 6.425576272120905319e-01
6.100000000000000533e+00 6.393884608259889912e-01
6.120000000000000107e+00 6.362381701054228289e-01
6.140000000000000568e+00 6.331066293303587722e-01
6.160000000000000142e+00 6.299937259854596627e-01
6.179999999999999716e+00 6.268993355516865318e-01
6.200000000000000178e+00 6.238233471301981581e-01
6.219999999999999751e+00 6.207656373947015860e-01
6.240000000000000213e+00 6.177260970589955047e-01
6.259999999999999787e+00 6.147046039806456363e-01
6.280000000000000249e+00 6.117010504816009497e-01
6.299999999999999822e+00 6.087153155936924076e-01
6.320000000000000284e+00 6.057472932419449840e-01
6.339999999999999858e+00 6.027968636223162147e-01
6.360000000000000320e+00 5.998639222572837992e-01
6.379999999999999893e+00 5.969483504961918818e-01
6.400000000000000355e+00 5.940500454528586660e-01
6.419999999999999929e+00 5.911688896187882181e-01
6.440000000000000391e+00 5.883047816925704998e-01
6.459999999999999964e+00 5.854576052961382171e-01
6.480000000000000426e+00 5.826272607058597952e-01
6.500000000000000000e+00 5.798136326619582892e-01
6.520000000000000462e+00 5.770166230112122596e-01
6.540000000000000036e+00 5.742361175995481792e-01
6.560000000000000497e+00 5.714720198364353632e-01
6.580000000000000071e+00 5.687242166605869231e-01
6.600000000000000533e+00 5.659926130361386809e-01
6.620000000000000107e+00 5.632770969812810335e-01
6.640000000000000568e+00 5.605775750065046248e-01
6.660000000000000142e+00 5.578939361959025511e-01
6.679999999999999716e+00 5.552260885977498006e-01
6.700000000000000178e+00 5.525739223481336282e-01
6.719999999999999751e+00 5.499373470243277273e-01
6.740000000000000213e+00 5.473162538002818156e-01
6.759999999999999787e+00 5.447105537732782610e-01
6.780000000000000249e+00 5.421201391407205472e-01
6.799999999999999822e+00 5.395449225107343816e-01
6.820000000000000284e+00 5.369847970895881284e-01
6.839999999999999858e+00 5.344396769869369512e-01
6.860000000000000320e+00 5.319094564030927286e-01
6.879999999999999893e+00 5.293940509397926375e-01
6.900000000000000355e+00 5.268933557764330367e-01
6.919999999999999929e+00 5.244072879972829782e-01
6.940000000000000391e+00 5.219357437456675353e-01
6.959999999999999964e+00 5.194786415787336908e-01
6.980000000000000426e+00 5.170358785884854314e-01
7.000000000000000000e+00 5.146073747952366606e-01
7.020000000000000462e+00 5.121930282242429522e-01
7.040000000000000036e+00 5.097927603492190540e-01
7.060000000000000497e+00 5.074064701131838495e-01
7.080000000000000071e+00 5.050340804334403355e-01
7.100000000000000533e+00 5.026754911551505334e-01
7.120000000000000107e+00 5.003306266293758853e-01
7.140000000000000568e+00 4.979993875877534726e-01
7.160000000000000142e+00 4.956816998052699375e-01
7.179999999999999716e+00 4.933774648842595423e-01
7.200000000000000178e+00 4.910866100137966095e-01
7.219999999999999751e+00 4.888090376511285973e-01
7.240000000000000213e+00 4.865446763896019711e-01
7.259999999999999787e+00 4.842934295254937016e-01
7.280000000000000249e+00 4.820552270466373357e-01
7.299999999999999822e+00 4.798299730724628342e-01
7.320000000000000284e+00 4.776175989755469531e-01
7.339999999999999858e+00 4.754180096825324497e-01
7.360000000000000320e+00 4.732311379410449326e-01
7.379999999999999893e+00 4.710568894690175812e-01
7.400000000000000355e+00 4.688951983794904521e-01
7.419999999999999929e+00 4.667459711657125365e-01
7.440000000000000391e+00 4.646091432965829271e-01
7.459999999999999964e+00 4.624846220247245676e-01
7.480000000000000426e+00 4.603723441654136717e-01
7.500000000000000000e+00 4.582722177146709153e-01
7.520000000000000462e+00 4.561841808247543706e-01
7.540000000000000036e+00 4.541081422191656225e-01
7.560000000000000497e+00 4.520440413778437083e-01
7.580000000000000071e+00 4.499917877358072804e-01
7.600000000000000533e+00 4.479513220914799199e-01
7.620000000000000107e+00 4.459225545755187703e-01
7.640000000000000568e+00 4.439054272957478342e-01
7.660000000000000142e+00 4.418998510625382070e-01
7.679999999999999716e+00 4.399057692841452094e-01
7.700000000000000178e+00 4.379230934348258275e-01
7.719999999999999751e+00 4.359517682144078421e-01
7.740000000000000213e+00 4.339917057451848081e-01
7.759999999999999787e+00 4.320428520098394398e-01
7.780000000000000249e+00 4.301051197629309764e-01
7.799999999999999822e+00 4.281784562614054934e-01
7.820000000000000284e+00 4.262627748763107571e-01
7.839999999999999858e+00 4.243580241303997469e-01
7.860000000000000320e+00 4.224641179955279102e-01
7.879999999999999893e+00 4.205810062519397818e-01
