# Electrodo circular de radio 6 mm y espesor 710.0 um.
# Volumen de simulacion (convencion z,y,x):
# N: 1024 x 1024 x 1024 | voxelSize:  0.02mm x 0.02mm x 0.02mm | FOV:  20.48mm x 20.48mm x 20.48mm
# 
# z [mm]		 delta[ppm]
0.000000000000000000e+00 2.519730984884183567e+00
2.000000000000000042e-02 2.516464034000725380e+00
4.000000000000000083e-02 2.513099972602574894e+00
5.999999999999999778e-02 2.509639575282995416e+00
8.000000000000000167e-02 2.506083618661867352e+00
1.000000000000000056e-01 2.502432892148417576e+00
1.199999999999999956e-01 2.498688206690323987e+00
1.400000000000000133e-01 2.494850391239623377e+00
1.600000000000000033e-01 2.490920290789733649e+00
1.799999999999999933e-01 2.486898768777535018e+00
2.000000000000000111e-01 2.482786702642226562e+00
2.200000000000000011e-01 2.478584987686236918e+00
2.399999999999999911e-01 2.474294532025512527e+00
2.600000000000000089e-01 2.469916260938222141e+00
2.800000000000000266e-01 2.465451111376657511e+00
2.999999999999999889e-01 2.460900036686170189e+00
3.200000000000000067e-01 2.456264000771830158e+00
3.400000000000000244e-01 2.451543983125741288e+00
3.599999999999999867e-01 2.446740972692712290e+00
3.800000000000000044e-01 2.441855973178799211e+00
4.000000000000000222e-01 2.436889996635432709e+00
4.199999999999999845e-01 2.431844069030713040e+00
4.400000000000000022e-01 2.426719223577290308e+00
4.600000000000000200e-01 2.421516506554211912e+00
4.799999999999999822e-01 2.416236970384693095e+00
5.000000000000000000e-01 2.410881679700028535e+00
5.200000000000000178e-01 2.405451704184613959e+00
5.400000000000000355e-01 2.399948124874843547e+00
5.600000000000000533e-01 2.394372026774454376e+00
5.799999999999999600e-01 2.388724505383162278e+00
5.999999999999999778e-01 2.383006659095649571e+00
6.199999999999999956e-01 2.377219595954851439e+00
6.400000000000000133e-01 2.371364425837132472e+00
6.600000000000000311e-01 2.365442267426093981e+00
6.800000000000000488e-01 2.359454240194996277e+00
7.000000000000000666e-01 2.353401471596732630e+00
7.199999999999999734e-01 2.347285088846232881e+00
7.399999999999999911e-01 2.341106226322814177e+00
7.600000000000000089e-01 2.334866017162162688e+00
7.800000000000000266e-01 2.328565600866961738e+00
8.000000000000000444e-01 2.322206114711533154e+00
8.200000000000000622e-01 2.315788701556914297e+00
8.399999999999999689e-01 2.309314501076836557e+00
8.599999999999999867e-01 2.302784657773098598e+00
8.800000000000000044e-01 2.296200312026334345e+00
9.000000000000000222e-01 2.289562608307659008e+00
9.200000000000000400e-01 2.282872686062254797e+00
9.400000000000000577e-01 2.276131688112978946e+00
9.599999999999999645e-01 2.269340751380509946e+00
9.799999999999999822e-01 2.262501015474655208e+00
1.000000000000000000e+00 2.255613613258620198e+00
1.020000000000000018e+00 2.248679679623436289e+00
1.040000000000000036e+00 2.241700341900398019e+00
1.060000000000000053e+00 2.234676728814048996e+00
1.080000000000000071e+00 2.227609960749978857e+00
1.100000000000000089e+00 2.220501158881531989e+00
1.120000000000000107e+00 2.213351435297246539e+00
1.140000000000000124e+00 2.206161902296388533e+00
1.159999999999999920e+00 2.198933662382997145e+00
1.179999999999999938e+00 2.191667817725095446e+00
1.199999999999999956e+00 2.184365460019837890e+00
1.219999999999999973e+00 2.177027680111184527e+00
1.239999999999999991e+00 2.169655557732918183e+00
1.260000000000000009e+00 2.162250171279356703e+00
1.280000000000000027e+00 2.154812587430900539e+00
1.300000000000000044e+00 2.147343871072258992e+00
1.320000000000000062e+00 2.139845074807182446e+00
1.340000000000000080e+00 2.132317249018471639e+00
1.360000000000000098e+00 2.124761431276722679e+00
1.380000000000000115e+00 2.117178656536307102e+00
1.400000000000000133e+00 2.109569946444682653e+00
1.419999999999999929e+00 2.101936319668343600e+00
1.439999999999999947e+00 2.094278781107678622e+00
1.459999999999999964e+00 2.086598332346799367e+00
1.479999999999999982e+00 2.078895960780448249e+00
1.500000000000000000e+00 2.071172650181435593e+00
1.520000000000000018e+00 2.063429369744746111e+00
1.540000000000000036e+00 2.055667084766206631e+00
1.560000000000000053e+00 2.047886745610278503e+00
1.580000000000000071e+00 2.040089298493468206e+00
1.600000000000000089e+00 2.032275674381059272e+00
1.620000000000000107e+00 2.024446799868677260e+00
1.640000000000000124e+00 2.016603586014460880e+00
1.660000000000000142e+00 2.008746939312033408e+00
1.679999999999999938e+00 2.000877750463526006e+00
1.699999999999999956e+00 1.992996905437178556e+00
1.719999999999999973e+00 1.985105274187697555e+00
1.739999999999999991e+00 1.977203721791549240e+00
1.760000000000000009e+00 1.969293097120242697e+00
1.780000000000000027e+00 1.961374244046285353e+00
1.800000000000000044e+00 1.953447990075949603e+00
1.820000000000000062e+00 1.945515157618780799e+00
1.840000000000000080e+00 1.937576552585551504e+00
1.860000000000000098e+00 1.929632975714149268e+00
1.880000000000000115e+00 1.921685211139318339e+00
1.900000000000000133e+00 1.913734037767654161e+00
1.919999999999999929e+00 1.905780217824984746e+00
1.939999999999999947e+00 1.897824508273145971e+00
1.959999999999999964e+00 1.889867649341681943e+00
1.979999999999999982e+00 1.881910375978960603e+00
2.000000000000000000e+00 1.873953406374208708e+00
2.020000000000000018e+00 1.865997453435518816e+00
2.040000000000000036e+00 1.858043213308948394e+00
2.060000000000000053e+00 1.850091376875875326e+00
2.080000000000000071e+00 1.842142618275320221e+00
2.100000000000000089e+00 1.834197606413054071e+00
2.120000000000000107e+00 1.826256993494002501e+00
2.140000000000000124e+00 1.818321426535444596e+00
2.160000000000000142e+00 1.810391535915780059e+00
2.180000000000000160e+00 1.802467946884141137e+00
2.200000000000000178e+00 1.794551268132468014e+00
2.220000000000000195e+00 1.786642103293770489e+00
2.240000000000000213e+00 1.778741039543959790e+00
2.260000000000000231e+00 1.770848659080981324e+00
2.280000000000000249e+00 1.762965527763431517e+00
2.300000000000000266e+00 1.755092206562726576e+00
2.319999999999999840e+00 1.747229240245103954e+00
2.339999999999999858e+00 1.739377168788957428e+00
2.359999999999999876e+00 1.731536516117363700e+00
2.379999999999999893e+00 1.723707801472678103e+00
2.399999999999999911e+00 1.715891528206307637e+00
2.419999999999999929e+00 1.708088195102648754e+00
2.439999999999999947e+00 1.700298285233346363e+00
2.459999999999999964e+00 1.692522277222597626e+00
2.479999999999999982e+00 1.684760634172764115e+00
2.500000000000000000e+00 1.677013814863062224e+00
2.520000000000000018e+00 1.669282262753861712e+00
2.540000000000000036e+00 1.661566417110749150e+00
2.560000000000000053e+00 1.653866702094508367e+00
2.580000000000000071e+00 1.646183537802508035e+00
2.600000000000000089e+00 1.638517329451816495e+00
2.620000000000000107e+00 1.630868478329851490e+00
2.640000000000000124e+00 1.623237371077738800e+00
2.660000000000000142e+00 1.615624390542152788e+00
2.680000000000000160e+00 1.608029905166462159e+00
2.700000000000000178e+00 1.600454279735646246e+00
2.720000000000000195e+00 1.592897864882469872e+00
2.740000000000000213e+00 1.585361007717359216e+00
2.760000000000000231e+00 1.577844041457246771e+00
2.780000000000000249e+00 1.570347295932268628e+00
2.800000000000000266e+00 1.562871087344614551e+00
2.819999999999999840e+00 1.555415728643916085e+00
2.839999999999999858e+00 1.547981519423821117e+00
2.859999999999999876e+00 1.540568756157904895e+00
2.879999999999999893e+00 1.533177722241424679e+00
2.899999999999999911e+00 1.525808698079575754e+00
2.919999999999999929e+00 1.518461951282255917e+00
2.939999999999999947e+00 1.511137746596442621e+00
2.959999999999999964e+00 1.503836336261532569e+00
2.979999999999999982e+00 1.496557969777662533e+00
3.000000000000000000e+00 1.489302884429490659e+00
3.020000000000000018e+00 1.482071314882256186e+00
3.040000000000000036e+00 1.474863483881650561e+00
3.060000000000000053e+00 1.467679611669381989e+00
3.080000000000000071e+00 1.460519906867123519e+00
3.100000000000000089e+00 1.453384575703333237e+00
3.120000000000000107e+00 1.446273813089011595e+00
3.140000000000000124e+00 1.439187811647546500e+00
3.160000000000000142e+00 1.432126752990317886e+00
3.180000000000000160e+00 1.425090816541296324e+00
3.200000000000000178e+00 1.418080171020317248e+00
3.220000000000000195e+00 1.411094983054199892e+00
3.240000000000000213e+00 1.404135408875754720e+00
3.260000000000000231e+00 1.397201602713152635e+00
3.280000000000000249e+00 1.390293708712591725e+00
3.300000000000000266e+00 1.383411869097615154e+00
3.320000000000000284e+00 1.376556216323596038e+00
3.339999999999999858e+00 1.369726880998718199e+00
3.359999999999999876e+00 1.362923984278244127e+00
3.379999999999999893e+00 1.356147645538864133e+00
3.399999999999999911e+00 1.349397975020973028e+00
3.419999999999999929e+00 1.342675081248061675e+00
3.439999999999999947e+00 1.335979063925025301e+00
3.459999999999999964e+00 1.329310021094329830e+00
3.479999999999999982e+00 1.322668042298584590e+00
3.500000000000000000e+00 1.316053215465142978e+00
3.520000000000000018e+00 1.309465620341063508e+00
3.540000000000000036e+00 1.302905335097827466e+00
3.560000000000000053e+00 1.296372430046966340e+00
3.580000000000000071e+00 1.289866973956548479e+00
3.600000000000000089e+00 1.283389028055657466e+00
3.620000000000000107e+00 1.276938652054304013e+00
3.640000000000000124e+00 1.270515898445075287e+00
3.660000000000000142e+00 1.264120818218133158e+00
3.680000000000000160e+00 1.257753455468246573e+00
3.700000000000000178e+00 1.251413852796495307e+00
3.720000000000000195e+00 1.245102046231088666e+00
3.740000000000000213e+00 1.238818070307411645e+00
3.760000000000000231e+00 1.232561953310852276e+00
3.780000000000000249e+00 1.226333722026842654e+00
3.800000000000000266e+00 1.220133397314107082e+00
3.820000000000000284e+00 1.213960998516297796e+00
3.839999999999999858e+00 1.207816539373985698e+00
3.859999999999999876e+00 1.201700032089487280e+00
3.879999999999999893e+00 1.195611483586044299e+00
3.899999999999999911e+00 1.189550899217440616e+00
3.919999999999999929e+00 1.183518279382716365e+00
3.939999999999999947e+00 1.177513622872166321e+00
3.959999999999999964e+00 1.171536923846065115e+00
3.979999999999999982e+00 1.165588174808620092e+00
4.000000000000000000e+00 1.159667363959113517e+00
4.020000000000000462e+00 1.153774477785353803e+00
4.040000000000000036e+00 1.147909498795742111e+00
4.060000000000000497e+00 1.142072407723816019e+00
4.080000000000000071e+00 1.136263181649633580e+00
4.099999999999999645e+00 1.130481795806962397e+00
4.120000000000000107e+00 1.124728222102529207e+00
4.139999999999999680e+00 1.119002430517375135e+00
4.160000000000000142e+00 1.113304388032453796e+00
4.179999999999999716e+00 1.107634059615671074e+00
4.200000000000000178e+00 1.101991407562382896e+00
4.219999999999999751e+00 1.096376392059652760e+00
4.240000000000000213e+00 1.090788970950156145e+00
4.259999999999999787e+00 1.085229099865134827e+00
4.280000000000000249e+00 1.079696732420299288e+00
4.299999999999999822e+00 1.074191819908998591e+00
4.320000000000000284e+00 1.068714311938648409e+00
4.339999999999999858e+00 1.063264155675557543e+00
4.360000000000000320e+00 1.057841296930561059e+00
4.379999999999999893e+00 1.052445678946939855e+00
4.400000000000000355e+00 1.047077243943810965e+00
4.419999999999999929e+00 1.041735931438623641e+00
4.440000000000000391e+00 1.036421680256931488e+00
4.459999999999999964e+00 1.031134426380920122e+00
4.480000000000000426e+00 1.025874105434188222e+00
4.500000000000000000e+00 1.020640650047660136e+00
4.520000000000000462e+00 1.015433992828106424e+00
4.540000000000000036e+00 1.010254063232875144e+00
4.560000000000000497e+00 1.005100791030746343e+00
4.580000000000000071e+00 9.999741026768614871e-01
4.600000000000000533e+00 9.948739252746726658e-01
4.620000000000000107e+00 9.898001824424185191e-01
4.639999999999999680e+00 9.847527987848612163e-01
4.660000000000000142e+00 9.797316952426428083e-01
4.679999999999999716e+00 9.747367940825742982e-01
4.700000000000000178e+00 9.697680137212082441e-01
4.719999999999999751e+00 9.648252742424148209e-01
4.740000000000000213e+00 9.599084916864436545e-01
4.759999999999999787e+00 9.550175841036183666e-01
4.780000000000000249e+00 9.501524653001695020e-01
4.799999999999999822e+00 9.453130514368146553e-01
4.820000000000000284e+00 9.404992542226178198e-01
4.839999999999999858e+00 9.357109880673104563e-01
4.860000000000000320e+00 9.309481627144233773e-01
4.879999999999999893e+00 9.262106909561506063e-01
4.900000000000000355e+00 9.214984806969658271e-01
4.919999999999999929e+00 9.168114432399483427e-01
4.940000000000000391e+00 9.121494847720538202e-01
4.959999999999999964e+00 9.075125152307762511e-01
4.980000000000000426e+00 9.029004392022232928e-01
5.000000000000000000e+00 8.983131653770779490e-01
5.020000000000000462e+00 8.937505968526139322e-01
5.040000000000000036e+00 8.892126411868690461e-01
5.060000000000000497e+00 8.846992000956961366e-01
5.080000000000000071e+00 8.802101801141719584e-01
5.100000000000000533e+00 8.757454816797578534e-01
5.120000000000000107e+00 8.713050104099165916e-01
5.139999999999999680e+00 8.668886655624103987e-01
5.160000000000000142e+00 8.624963519382224941e-01
5.179999999999999716e+00 8.581279677099900027e-01
5.200000000000000178e+00 8.537834169592717348e-01
5.219999999999999751e+00 8.494625968640836522e-01
5.240000000000000213e+00 8.451654108796622378e-01
5.259999999999999787e+00 8.408917552760327707e-01
5.280000000000000249e+00 8.366415329713813298e-01
5.299999999999999822e+00 8.324146394105652602e-01
5.320000000000000284e+00 8.282109770602864574e-01
5.339999999999999858e+00 8.240304406194224329e-01
5.360000000000000320e+00 8.198729321851894181e-01
5.379999999999999893e+00 8.157383457860858389e-01
5.400000000000000355e+00 8.116265832283677817e-01
5.419999999999999929e+00 8.075375379423771482e-01
5.440000000000000391e+00 8.034711115185847463e-01
5.459999999999999964e+00 7.994271968580491938e-01
5.480000000000000426e+00 7.954056954073955854e-01
5.500000000000000000e+00 7.914064996041049183e-01
5.520000000000000462e+00 7.874295108197751913e-01
5.540000000000000036e+00 7.834746210908771769e-01
5.560000000000000497e+00 7.795417317797852519e-01
5.580000000000000071e+00 7.756307345815895982e-01
5.600000000000000533e+00 7.717415309123158984e-01
5.620000000000000107e+00 7.678740121823802722e-01
5.639999999999999680e+00 7.640280799215413143e-01
5.660000000000000142e+00 7.602036253094914819e-01
5.679999999999999716e+00 7.564005500470922794e-01
5.700000000000000178e+00 7.526187451345355273e-01
5.719999999999999751e+00 7.488581124985393966e-01
5.740000000000000213e+00 7.451185430084825700e-01
5.759999999999999787e+00 7.413999388691708825e-01
5.780000000000000249e+00 7.377021908652993121e-01
5.799999999999999822e+00 7.340252015295739563e-01
5.820000000000000284e+00 7.303688616057817384e-01
5.839999999999999858e+00 7.267330740019980473e-01
5.860000000000000320e+00 7.231177294624994145e-01
5.879999999999999893e+00 7.195227313159552329e-01
5.900000000000000355e+00 7.159479703463443867e-01
5.919999999999999929e+00 7.123933503459821681e-01
5.940000000000000391e+00 7.088587621755578771e-01
5.959999999999999964e+00 7.053441101320089279e-01
5.980000000000000426e+00 7.018492851877099481e-01
6.000000000000000000e+00 6.983741921831873034e-01
6.020000000000000462e+00 6.949187222354367144e-01
6.040000000000000036e+00 6.914827807656069858e-01
6.060000000000000497e+00 6.880662590663763067e-01
6.080000000000000071e+00 6.846690631747056610e-01
6.100000000000000533e+00 6.812910845881000599e-01
6.120000000000000107e+00 6.779322299927459383e-01
6.140000000000000568e+00 6.745923911184044108e-01
6.160000000000000142e+00 6.712714753321727956e-01
6.179999999999999716e+00 6.679693746217332251e-01
6.200000000000000178e+00 6.646859970651507465e-01
6.219999999999999751e+00 6.614212349320827133e-01
6.240000000000000213e+00 6.581749970400377903e-01
6.259999999999999787e+00 6.549471759630898227e-01
6.280000000000000249e+00 6.517376812851518597e-01
6.299999999999999822e+00 6.485464059056591513e-01
6.320000000000000284e+00 6.453732602004421670e-01
6.339999999999999858e+00 6.422181374137508891e-01
6.360000000000000320e+00 6.390809487374446984e-01
6.379999999999999893e+00 6.359615877786789495e-01
6.400000000000000355e+00 6.328599665681269304e-01
6.419999999999999929e+00 6.297759790925329115e-01
6.440000000000000391e+00 6.267095382428905515e-01
6.459999999999999964e+00 6.236605384009797914e-01
6.480000000000000426e+00 6.206288933383893314e-01
6.500000000000000000e+00 6.176144978460856860e-01
6.520000000000000462e+00 6.146172665953585357e-01
6.540000000000000036e+00 6.116370947993612361e-01
6.560000000000000497e+00 6.086738980470624005e-01
6.580000000000000071e+00 6.057275719856169971e-01
6.600000000000000533e+00 6.027980331385839330e-01
6.620000000000000107e+00 5.998851775978703005e-01
6.640000000000000568e+00 5.969889228375024892e-01
6.660000000000000142e+00 5.941091654038022085e-01
6.679999999999999716e+00 5.912458237361528646e-01
6.700000000000000178e+00 5.883987948439800553e-01
6.719999999999999751e+00 5.855679981459857020e-01
6.740000000000000213e+00 5.827533311223720425e-01
6.759999999999999787e+00 5.799547141842165132e-01
6.780000000000000249e+00 5.771720452892930009e-01
6.799999999999999822e+00 5.744052458532548089e-01
6.820000000000000284e+00 5.716542143172983481e-01
6.839999999999999858e+00 5.689188731130389032e-01
6.860000000000000320e+00 5.661991211701450366e-01
6.879999999999999893e+00 5.634948819467955339e-01
6.900000000000000355e+00 5.608060548653137634e-01
6.919999999999999929e+00 5.581325644203060099e-01
6.940000000000000391e+00 5.554743105301990225e-01
6.959999999999999964e+00 5.528312187351698270e-01
6.980000000000000426e+00 5.502031894524022082e-01
7.000000000000000000e+00 5.475901492761250378e-01
7.020000000000000462e+00 5.449919991242564432e-01
7.040000000000000036e+00 5.424086666529152057e-01
7.060000000000000497e+00 5.398400532819959130e-01
7.080000000000000071e+00 5.372860877367273691e-01
7.100000000000000533e+00 5.347466719396226642e-01
7.120000000000000107e+00 5.322217356916639774e-01
7.140000000000000568e+00 5.297111814179384925e-01
7.160000000000000142e+00 5.272149400012781095e-01
7.179999999999999716e+00 5.247329143687482489e-01
7.200000000000000178e+00 5.222650364905957465e-01
7.219999999999999751e+00 5.198112097946530064e-01
7.240000000000000213e+00 5.173713673436522997e-01
7.259999999999999787e+00 5.149454130644731675e-01
7.280000000000000249e+00 5.125332811169359681e-01
7.299999999999999822e+00 5.101348759246704390e-01
7.320000000000000284e+00 5.077501327487408123e-01
7.339999999999999858e+00 5.053789565067897671e-01
7.360000000000000320e+00 5.030212835648579794e-01
7.379999999999999893e+00 5.006770193313250239e-01
7.400000000000000355e+00 4.983461012805383006e-01
7.419999999999999929e+00 4.960284353079362774e-01
7.440000000000000391e+00 4.937239599991383177e-01
7.459999999999999964e+00 4.914325817324650680e-01
7.480000000000000426e+00 4.891542402074114393e-01
7.500000000000000000e+00 4.868888422806481042e-01
7.520000000000000462e+00 4.846363287678119303e-01
7.540000000000000036e+00 4.823966069989470973e-01
7.560000000000000497e+00 4.801696189077850341e-01
7.580000000000000071e+00 4.779552722924212960e-01
7.600000000000000533e+00 4.757535102063407684e-01
7.620000000000000107e+00 4.735642409099738437e-01
7.640000000000000568e+00 4.713874085779440892e-01
7.660000000000000142e+00 4.692229219269842821e-01
7.679999999999999716e+00 4.670707262539811055e-01
7.700000000000000178e+00 4.649307307255745036e-01
7.719999999999999751e+00 4.628028817617843571e-01
7.740000000000000213e+00 4.606870889724979379e-01
7.759999999999999787e+00 4.585832999015262978e-01
7.780000000000000249e+00 4.564914245949847627e-01
7.799999999999999822e+00 4.544114117209158699e-01
7.820000000000000284e+00 4.523431717544171282e-01
7.839999999999999858e+00 4.502866544880058663e-01
7.860000000000000320e+00 4.482417708181937743e-01
7.879999999999999893e+00 4.462084716620344227e-01
