# Electrodo circular de radio 6 mm y espesor 710.0 um.
# Volumen de simulacion (convencion z,y,x):
# N: 1024 x 1024 x 1024 | voxelSize:  0.02mm x 0.02mm x 0.02mm | FOV:  20.48mm x 20.48mm x 20.48mm
# 
# z [mm]		 delta[ppm]
0.000000000000000000e+00 2.448758998970242295e+00
2.000000000000000042e-02 2.445919973774712375e+00
4.000000000000000083e-02 2.442995533496447269e+00
5.999999999999999778e-02 2.439986226483146226e+00
8.000000000000000167e-02 2.436892631119305541e+00
1.000000000000000056e-01 2.433715346788469347e+00
1.199999999999999956e-01 2.430454980765199835e+00
1.400000000000000133e-01 2.427112157087398803e+00
1.600000000000000033e-01 2.423687510315621019e+00
1.799999999999999933e-01 2.420181690548507181e+00
2.000000000000000111e-01 2.416595358433577090e+00
2.200000000000000011e-01 2.412929189614912318e+00
2.399999999999999911e-01 2.409183869633005681e+00
2.600000000000000089e-01 2.405360098491315046e+00
2.800000000000000266e-01 2.401458585409365742e+00
2.999999999999999889e-01 2.397480053546022116e+00
3.200000000000000067e-01 2.393425234563280490e+00
3.400000000000000244e-01 2.389294873529621999e+00
3.599999999999999867e-01 2.385089723291986097e+00
3.800000000000000044e-01 2.380810549563115774e+00
4.000000000000000222e-01 2.376458125099323304e+00
4.199999999999999845e-01 2.372033234975860161e+00
4.400000000000000022e-01 2.367536670568183066e+00
4.600000000000000200e-01 2.362969235016080471e+00
4.799999999999999822e-01 2.358331737012815843e+00
5.000000000000000000e-01 2.353624996457873042e+00
5.200000000000000178e-01 2.348849838053402639e+00
5.400000000000000355e-01 2.344007097144717111e+00
5.600000000000000533e-01 2.339097613129928366e+00
5.799999999999999600e-01 2.334122235486597585e+00
5.999999999999999778e-01 2.329081816995326903e+00
6.199999999999999956e-01 2.323977219950813300e+00
6.400000000000000133e-01 2.318809309205576152e+00
6.600000000000000311e-01 2.313578958563059729e+00
6.800000000000000488e-01 2.308287043643320491e+00
7.000000000000000666e-01 2.302934448455763672e+00
7.199999999999999734e-01 2.297522058092990704e+00
7.399999999999999911e-01 2.292050765480349916e+00
7.600000000000000089e-01 2.286521463900470064e+00
7.800000000000000266e-01 2.280935053916763877e+00
8.000000000000000444e-01 2.275292435734792562e+00
8.200000000000000622e-01 2.269594516296493225e+00
8.399999999999999689e-01 2.263842201481474525e+00
8.599999999999999867e-01 2.258036403368717249e+00
8.800000000000000044e-01 2.252178032283883802e+00
9.000000000000000222e-01 2.246268004224889037e+00
9.200000000000000400e-01 2.240307232758802058e+00
9.400000000000000577e-01 2.234296636607686626e+00
9.599999999999999645e-01 2.228237131401076709e+00
9.799999999999999822e-01 2.222129637418210457e+00
1.000000000000000000e+00 2.215975071200023905e+00
1.020000000000000018e+00 2.209774353443808348e+00
1.040000000000000036e+00 2.203528400480693428e+00
1.060000000000000053e+00 2.197238132318566350e+00
1.080000000000000071e+00 2.190904463989251649e+00
1.100000000000000089e+00 2.184528313735421445e+00
1.120000000000000107e+00 2.178110594233458208e+00
1.140000000000000124e+00 2.171652220919858323e+00
1.159999999999999920e+00 2.165154103094264482e+00
1.179999999999999938e+00 2.158617152380793769e+00
1.199999999999999956e+00 2.152042273717215348e+00
1.219999999999999973e+00 2.145430373946446867e+00
1.239999999999999991e+00 2.138782352696549260e+00
1.260000000000000009e+00 2.132099111097570887e+00
1.280000000000000027e+00 2.125381542558340442e+00
1.300000000000000044e+00 2.118630541603612638e+00
1.320000000000000062e+00 2.111846994552565082e+00
1.340000000000000080e+00 2.105031788471122045e+00
1.360000000000000098e+00 2.098185801758169156e+00
1.380000000000000115e+00 2.091309913207769711e+00
1.400000000000000133e+00 2.084404992508153143e+00
1.419999999999999929e+00 2.077471909408454387e+00
1.439999999999999947e+00 2.070511524136530390e+00
1.459999999999999964e+00 2.063524696664683411e+00
1.479999999999999982e+00 2.056512277051535165e+00
1.500000000000000000e+00 2.049475114801106113e+00
1.520000000000000018e+00 2.042414049134863241e+00
1.540000000000000036e+00 2.035329918438365748e+00
1.560000000000000053e+00 2.028223550468873704e+00
1.580000000000000071e+00 2.021095771883719916e+00
1.600000000000000089e+00 2.013947398389618115e+00
1.620000000000000107e+00 2.006779244346777347e+00
1.640000000000000124e+00 1.999592112865437477e+00
1.660000000000000142e+00 1.992386805479652079e+00
1.679999999999999938e+00 1.985164112197262964e+00
1.699999999999999956e+00 1.977924821237169173e+00
1.719999999999999973e+00 1.970669709038399553e+00
1.739999999999999991e+00 1.963399550054584441e+00
1.760000000000000009e+00 1.956115106728429920e+00
1.780000000000000027e+00 1.948817139336984861e+00
1.800000000000000044e+00 1.941506395937321106e+00
1.820000000000000062e+00 1.934183622256140822e+00
1.840000000000000080e+00 1.926849551613024403e+00
1.860000000000000098e+00 1.919504914847796284e+00
1.880000000000000115e+00 1.912150430227278042e+00
1.900000000000000133e+00 1.904786813403778645e+00
1.919999999999999929e+00 1.897414767311784489e+00
1.939999999999999947e+00 1.890034992150843918e+00
1.959999999999999964e+00 1.882648175278261782e+00
1.979999999999999982e+00 1.875255001209558348e+00
2.000000000000000000e+00 1.867856141513704715e+00
2.020000000000000018e+00 1.860452264824270729e+00
2.040000000000000036e+00 1.853044026743386086e+00
2.060000000000000053e+00 1.845632079856624808e+00
2.080000000000000071e+00 1.838217063652294092e+00
2.100000000000000089e+00 1.830799614533035191e+00
2.120000000000000107e+00 1.823380355756766935e+00
2.140000000000000124e+00 1.815959907437889598e+00
2.160000000000000142e+00 1.808538876516596838e+00
2.180000000000000160e+00 1.801117866742519391e+00
2.200000000000000178e+00 1.793697468678844720e+00
2.220000000000000195e+00 1.786278269661188078e+00
2.240000000000000213e+00 1.778860843843311557e+00
2.260000000000000231e+00 1.771445762123943890e+00
2.280000000000000249e+00 1.764033582240657649e+00
2.300000000000000266e+00 1.756624858657298782e+00
2.319999999999999840e+00 1.749220132712924647e+00
2.339999999999999858e+00 1.741819942462450532e+00
2.359999999999999876e+00 1.734424812887324086e+00
2.379999999999999893e+00 1.727035265681954535e+00
2.399999999999999911e+00 1.719651809533104148e+00
2.419999999999999929e+00 1.712274949844612593e+00
2.439999999999999947e+00 1.704905179092308876e+00
2.459999999999999964e+00 1.697542986479486649e+00
2.479999999999999982e+00 1.690188848374419184e+00
2.500000000000000000e+00 1.682843237889011689e+00
2.520000000000000018e+00 1.675506615405822242e+00
2.540000000000000036e+00 1.668179438072271870e+00
2.560000000000000053e+00 1.660862150424352368e+00
2.580000000000000071e+00 1.653555193788719402e+00
2.600000000000000089e+00 1.646258997010105363e+00
2.620000000000000107e+00 1.638973985753612084e+00
2.640000000000000124e+00 1.631700573343085603e+00
2.660000000000000142e+00 1.624439169955862461e+00
2.680000000000000160e+00 1.617190173579245993e+00
2.700000000000000178e+00 1.609953979089932208e+00
2.720000000000000195e+00 1.602730969335934397e+00
2.740000000000000213e+00 1.595521524092881505e+00
2.760000000000000231e+00 1.588326011278635708e+00
2.780000000000000249e+00 1.581144795778621104e+00
2.800000000000000266e+00 1.573978230800563205e+00
2.819999999999999840e+00 1.566826666560994452e+00
2.839999999999999858e+00 1.559690441787437543e+00
2.859999999999999876e+00 1.552569892258195861e+00
2.879999999999999893e+00 1.545465342459506175e+00
2.899999999999999911e+00 1.538377113970676779e+00
2.919999999999999929e+00 1.531305517283666928e+00
2.939999999999999947e+00 1.524250860025582410e+00
2.959999999999999964e+00 1.517213438948299853e+00
2.979999999999999982e+00 1.510193547980366757e+00
3.000000000000000000e+00 1.503191470394161344e+00
3.020000000000000018e+00 1.496207486679206555e+00
3.040000000000000036e+00 1.489241866894550403e+00
3.060000000000000053e+00 1.482294878355457701e+00
3.080000000000000071e+00 1.475366778178637484e+00
3.100000000000000089e+00 1.468457820774241585e+00
3.120000000000000107e+00 1.461568250591708029e+00
3.140000000000000124e+00 1.454698309409007129e+00
3.160000000000000142e+00 1.447848229286782695e+00
3.180000000000000160e+00 1.441018239646735921e+00
3.200000000000000178e+00 1.434208560441918578e+00
3.220000000000000195e+00 1.427419409016155383e+00
3.240000000000000213e+00 1.420650993498224768e+00
3.260000000000000231e+00 1.413903519434186462e+00
3.280000000000000249e+00 1.407177183413392374e+00
3.300000000000000266e+00 1.400472179465539924e+00
3.320000000000000284e+00 1.393788692926354322e+00
3.339999999999999858e+00 1.387126906591198860e+00
3.359999999999999876e+00 1.380486994828407532e+00
3.379999999999999893e+00 1.373869129481257056e+00
3.399999999999999911e+00 1.367273474236877062e+00
3.419999999999999929e+00 1.360700190268348653e+00
3.439999999999999947e+00 1.354149430867237047e+00
3.459999999999999964e+00 1.347621346817622134e+00
3.479999999999999982e+00 1.341116081300208984e+00
3.500000000000000000e+00 1.334633774990021893e+00
3.520000000000000018e+00 1.328174561240234697e+00
3.540000000000000036e+00 1.321738570895268250e+00
3.560000000000000053e+00 1.315325927762367231e+00
3.580000000000000071e+00 1.308936753131793695e+00
3.600000000000000089e+00 1.302571161544364253e+00
3.620000000000000107e+00 1.296229265010442333e+00
3.640000000000000124e+00 1.289911169081503717e+00
3.660000000000000142e+00 1.283616976759625938e+00
3.680000000000000160e+00 1.277346784881332686e+00
3.700000000000000178e+00 1.271100687709216137e+00
3.720000000000000195e+00 1.264878773636243459e+00
3.740000000000000213e+00 1.258681128451161646e+00
3.760000000000000231e+00 1.252507832371535290e+00
3.780000000000000249e+00 1.246358962974588369e+00
3.800000000000000266e+00 1.240234592567186489e+00
3.820000000000000284e+00 1.234134790773709911e+00
3.839999999999999858e+00 1.228059622251356231e+00
3.859999999999999876e+00 1.222009148926632927e+00
3.879999999999999893e+00 1.215983428064242755e+00
3.899999999999999911e+00 1.209982514143773225e+00
3.919999999999999929e+00 1.204006457290583088e+00
3.939999999999999947e+00 1.198055304784246378e+00
3.959999999999999964e+00 1.192129099859755126e+00
3.979999999999999982e+00 1.186227882839262060e+00
4.000000000000000000e+00 1.180351690312080537e+00
4.020000000000000462e+00 1.174500555881222930e+00
4.040000000000000036e+00 1.168674509730575739e+00
4.060000000000000497e+00 1.162873578977762001e+00
4.080000000000000071e+00 1.157097787636986563e+00
4.099999999999999645e+00 1.151347156569724195e+00
4.120000000000000107e+00 1.145621703851647633e+00
4.139999999999999680e+00 1.139921444312601562e+00
4.160000000000000142e+00 1.134246390316213215e+00
4.179999999999999716e+00 1.128596550880584415e+00
4.200000000000000178e+00 1.122971932879045065e+00
4.219999999999999751e+00 1.117372539733012538e+00
4.240000000000000213e+00 1.111798373042516275e+00
4.259999999999999787e+00 1.106249430842617620e+00
4.280000000000000249e+00 1.100725709672220942e+00
4.299999999999999822e+00 1.095227202385469223e+00
4.320000000000000284e+00 1.089753900667516318e+00
4.339999999999999858e+00 1.084305792392232348e+00
4.360000000000000320e+00 1.078882864593554647e+00
4.379999999999999893e+00 1.073485100360839661e+00
4.400000000000000355e+00 1.068112482274493180e+00
4.419999999999999929e+00 1.062764988830325219e+00
4.440000000000000391e+00 1.057442598348066864e+00
4.459999999999999964e+00 1.052145284916046641e+00
4.480000000000000426e+00 1.046873022781388940e+00
4.500000000000000000e+00 1.041625781806235773e+00
4.520000000000000462e+00 1.036403532348348033e+00
4.540000000000000036e+00 1.031206240220162274e+00
4.560000000000000497e+00 1.026033872068570219e+00
4.580000000000000071e+00 1.020886389828047802e+00
4.600000000000000533e+00 1.015763756608384361e+00
4.620000000000000107e+00 1.010665930633074083e+00
4.639999999999999680e+00 1.005592871643884445e+00
4.660000000000000142e+00 1.000544534315686684e+00
4.679999999999999716e+00 9.955208751866618799e-01
4.700000000000000178e+00 9.905218455407308609e-01
4.719999999999999751e+00 9.855473988723466583e-01
4.740000000000000213e+00 9.805974832276278530e-01
4.759999999999999787e+00 9.756720492126148558e-01
4.780000000000000249e+00 9.707710417842059236e-01
4.799999999999999822e+00 9.658944088108782910e-01
4.820000000000000284e+00 9.610420923044886710e-01
4.839999999999999858e+00 9.562140375423843208e-01
4.860000000000000320e+00 9.514101837311220722e-01
4.879999999999999893e+00 9.466304736990142077e-01
4.900000000000000355e+00 9.418748439827738794e-01
4.919999999999999929e+00 9.371432350995079208e-01
4.940000000000000391e+00 9.324355810472458872e-01
4.959999999999999964e+00 9.277518201655088337e-01
4.980000000000000426e+00 9.230918840406705517e-01
5.000000000000000000e+00 9.184557089641642857e-01
5.020000000000000462e+00 9.138432242335824407e-01
5.040000000000000036e+00 9.092543642177207674e-01
5.060000000000000497e+00 9.046890560442790719e-01
5.080000000000000071e+00 9.001472322808878879e-01
5.100000000000000533e+00 8.956288180002512922e-01
5.120000000000000107e+00 8.911337440864186554e-01
5.139999999999999680e+00 8.866619336681594854e-01
5.160000000000000142e+00 8.822133160597087631e-01
5.179999999999999716e+00 8.777878125531318743e-01
5.200000000000000178e+00 8.733853510028865008e-01
5.219999999999999751e+00 8.690058509678939558e-01
5.240000000000000213e+00 8.646492389492183017e-01
5.259999999999999787e+00 8.603154328725192146e-01
5.280000000000000249e+00 8.560043579882796738e-01
5.299999999999999822e+00 8.517159306852819523e-01
5.320000000000000284e+00 8.474500750627520507e-01
5.339999999999999858e+00 8.432067060654601098e-01
5.360000000000000320e+00 8.389857467373055266e-01
5.379999999999999893e+00 8.347871106685620379e-01
5.400000000000000355e+00 8.306107199404001440e-01
5.419999999999999929e+00 8.264564868747733550e-01
5.440000000000000391e+00 8.223243326794809072e-01
5.459999999999999964e+00 8.182141684911528046e-01
5.480000000000000426e+00 8.141259147304102939e-01
5.500000000000000000e+00 8.100594814283673673e-01
5.520000000000000462e+00 8.060147883015909009e-01
5.540000000000000036e+00 8.019917443524532397e-01
5.560000000000000497e+00 7.979902686735927952e-01
5.580000000000000071e+00 7.940102693124058142e-01
5.600000000000000533e+00 7.900516648147909438e-01
5.620000000000000107e+00 7.861143623440656203e-01
5.639999999999999680e+00 7.821982799737559056e-01
5.660000000000000142e+00 7.783033240511207929e-01
5.679999999999999716e+00 7.744294122489169263e-01
5.700000000000000178e+00 7.705764501636510611e-01
5.719999999999999751e+00 7.667443551362238541e-01
5.740000000000000213e+00 7.629330320749987404e-01
5.759999999999999787e+00 7.591423980553254625e-01
5.780000000000000249e+00 7.553723573574472328e-01
5.799999999999999822e+00 7.516228268549373093e-01
5.820000000000000284e+00 7.478937102574020335e-01
5.839999999999999858e+00 7.441849242979449164e-01
5.860000000000000320e+00 7.404963721705773994e-01
5.879999999999999893e+00 7.368279705268641067e-01
5.900000000000000355e+00 7.331796220978590295e-01
5.919999999999999929e+00 7.295512435101910720e-01
5.940000000000000391e+00 7.259427370823086090e-01
5.959999999999999964e+00 7.223540194702722239e-01
5.980000000000000426e+00 7.187849926279973323e-01
6.000000000000000000e+00 7.152355732931624521e-01
6.020000000000000462e+00 7.117056631010798551e-01
6.040000000000000036e+00 7.081951789211173853e-01
6.060000000000000497e+00 7.047040221137776950e-01
6.080000000000000071e+00 7.012321097281544180e-01
6.100000000000000533e+00 6.977793428916959639e-01
6.120000000000000107e+00 6.943456388792847989e-01
6.140000000000000568e+00 6.909308986250803919e-01
6.160000000000000142e+00 6.875350396738836301e-01
6.179999999999999716e+00 6.841579628044296424e-01
6.200000000000000178e+00 6.807995858737327932e-01
6.219999999999999751e+00 6.774598095410701015e-01
6.240000000000000213e+00 6.741385520161646827e-01
6.259999999999999787e+00 6.708357138730480784e-01
6.280000000000000249e+00 6.675512137129145929e-01
6.299999999999999822e+00 6.642849520569680255e-01
6.320000000000000284e+00 6.610368479349674198e-01
6.339999999999999858e+00 6.578068018460654365e-01
6.360000000000000320e+00 6.545947332840517108e-01
6.379999999999999893e+00 6.514005427551396998e-01
6.400000000000000355e+00 6.482241502510622810e-01
6.419999999999999929e+00 6.450654563126457797e-01
6.440000000000000391e+00 6.419243814619706168e-01
6.459999999999999964e+00 6.388008263004854026e-01
6.480000000000000426e+00 6.356947119115602396e-01
6.500000000000000000e+00 6.326059389818248224e-01
6.520000000000000462e+00 6.295344291854817476e-01
6.540000000000000036e+00 6.264800833174427597e-01
6.560000000000000497e+00 6.234428236709281812e-01
6.580000000000000071e+00 6.204225511708904017e-01
6.600000000000000533e+00 6.174191887564539627e-01
6.620000000000000107e+00 6.144326375030031429e-01
6.640000000000000568e+00 6.114628210211882076e-01
6.660000000000000142e+00 6.085096405559728971e-01
6.679999999999999716e+00 6.055730204139391226e-01
6.700000000000000178e+00 6.026528620275012349e-01
6.719999999999999751e+00 5.997490904224201946e-01
6.740000000000000213e+00 5.968616072352661561e-01
6.759999999999999787e+00 5.939903382330966597e-01
6.780000000000000249e+00 5.911351852721622446e-01
6.799999999999999822e+00 5.882960748818543140e-01
6.820000000000000284e+00 5.854729091525372464e-01
6.839999999999999858e+00 5.826656153959359763e-01
6.860000000000000320e+00 5.798740959498661640e-01
6.879999999999999893e+00 5.770982789273804148e-01
6.900000000000000355e+00 5.743380669260734761e-01
6.919999999999999929e+00 5.715933888783645278e-01
6.940000000000000391e+00 5.688641476529308072e-01
6.959999999999999964e+00 5.661502730186596111e-01
6.980000000000000426e+00 5.634516681256841464e-01
7.000000000000000000e+00 5.607682635955879569e-01
7.020000000000000462e+00 5.580999628693691372e-01
7.040000000000000036e+00 5.554466974366826237e-01
7.060000000000000497e+00 5.528083710379397830e-01
7.080000000000000071e+00 5.501849160454173049e-01
7.100000000000000533e+00 5.475762365066046966e-01
7.120000000000000107e+00 5.449822656901712747e-01
7.140000000000000568e+00 5.424029079575453105e-01
7.160000000000000142e+00 5.398380974868104420e-01
7.179999999999999716e+00 5.372877389593678776e-01
7.200000000000000178e+00 5.347517674750117411e-01
7.219999999999999751e+00 5.322300880404202683e-01
7.240000000000000213e+00 5.297226366887062277e-01
7.259999999999999787e+00 5.272293187563554806e-01
7.280000000000000249e+00 5.247500712207464613e-01
7.299999999999999822e+00 5.222847997520215779e-01
7.320000000000000284e+00 5.198334422821418999e-01
7.339999999999999858e+00 5.173959048180526432e-01
7.360000000000000320e+00 5.149721262560067458e-01
7.379999999999999893e+00 5.125620129422646665e-01
7.400000000000000355e+00 5.101655047464997983e-01
7.419999999999999929e+00 5.077825083561446906e-01
7.440000000000000391e+00 5.054129646228792128e-01
7.459999999999999964e+00 5.030567805765785439e-01
7.480000000000000426e+00 5.007138980589834754e-01
7.500000000000000000e+00 4.983842244430788937e-01
7.520000000000000462e+00 4.960677025682133645e-01
7.540000000000000036e+00 4.937642401506270318e-01
7.560000000000000497e+00 4.914737810343455249e-01
7.580000000000000071e+00 4.891962332784229872e-01
7.600000000000000533e+00 4.869315417381739897e-01
7.620000000000000107e+00 4.846796148145635086e-01
7.640000000000000568e+00 4.824403983803766116e-01
7.660000000000000142e+00 4.802138011770337167e-01
7.679999999999999716e+00 4.779997701005561650e-01
7.700000000000000178e+00 4.757982142309428730e-01
7.719999999999999751e+00 4.736090814928128334e-01
7.740000000000000213e+00 4.714322813023729686e-01
7.759999999999999787e+00 4.692677626178401451e-01
7.780000000000000249e+00 4.671154351888495149e-01
7.799999999999999822e+00 4.649752490118556070e-01
7.820000000000000284e+00 4.628471141666922195e-01
7.839999999999999858e+00 4.607309816923519930e-01
7.860000000000000320e+00 4.586267619952762997e-01
7.879999999999999893e+00 4.565344071609769849e-01
