# Electrodo circular de radio 6 mm y espesor 710.0 um.
# Volumen de simulacion (convencion z,y,x):
# N: 1024 x 1024 x 1024 | voxelSize:  0.02mm x 0.02mm x 0.02mm | FOV:  20.48mm x 20.48mm x 20.48mm
# 
# z [mm]		 delta[ppm]
0.000000000000000000e+00 5.640347942993243713e+00
2.000000000000000042e-02 5.526261893584321072e+00
4.000000000000000083e-02 5.411860200328105108e+00
5.999999999999999778e-02 5.297466130143773988e+00
8.000000000000000167e-02 5.183392833459747884e+00
1.000000000000000056e-01 5.069939229144383219e+00
1.199999999999999956e-01 4.957387108026050093e+00
1.400000000000000133e-01 4.845998534038015393e+00
1.600000000000000033e-01 4.736013904452646806e+00
1.799999999999999933e-01 4.627650497258129825e+00
2.000000000000000111e-01 4.521101608354970658e+00
2.200000000000000011e-01 4.416536197796824936e+00
2.399999999999999911e-01 4.314099024064205423e+00
2.600000000000000089e-01 4.213911208069294645e+00
2.800000000000000266e-01 4.116071145330521652e+00
2.999999999999999889e-01 4.020655724764167438e+00
3.200000000000000067e-01 3.927721745567552158e+00
3.400000000000000244e-01 3.837307512741035875e+00
3.599999999999999867e-01 3.749434496363552416e+00
3.800000000000000044e-01 3.664109061536728440e+00
4.000000000000000222e-01 3.581324158265190238e+00
4.199999999999999845e-01 3.501061004902652041e+00
4.400000000000000022e-01 3.423290662037930421e+00
4.600000000000000200e-01 3.347975554242766272e+00
4.799999999999999822e-01 3.275070843369381812e+00
5.000000000000000000e-01 3.204525730098010339e+00
5.200000000000000178e-01 3.136284591570663860e+00
5.400000000000000355e-01 3.070288046330987619e+00
5.600000000000000533e-01 3.006473855559641084e+00
5.799999999999999600e-01 2.944777762269581878e+00
5.999999999999999778e-01 2.885134176074732881e+00
6.199999999999999956e-01 2.827476812506691584e+00
6.400000000000000133e-01 2.771739191328137064e+00
6.600000000000000311e-01 2.717855107990421182e+00
6.800000000000000488e-01 2.665758978437891002e+00
7.000000000000000666e-01 2.615386175204522878e+00
7.199999999999999734e-01 2.566673250239382753e+00
7.399999999999999911e-01 2.519558165433026353e+00
7.600000000000000089e-01 2.473980421377779848e+00
7.800000000000000266e-01 2.429881207947282906e+00
8.000000000000000444e-01 2.387203462425056433e+00
8.200000000000000622e-01 2.345891961220897937e+00
8.399999999999999689e-01 2.305893326326031278e+00
8.599999999999999867e-01 2.267156074946452993e+00
8.800000000000000044e-01 2.229630589165358501e+00
9.000000000000000222e-01 2.193269136499305993e+00
9.200000000000000400e-01 2.158025814185120517e+00
9.400000000000000577e-01 2.123856550514746200e+00
9.599999999999999645e-01 2.090719032314064307e+00
9.799999999999999822e-01 2.058572694375180312e+00
1.000000000000000000e+00 2.027378636443658344e+00
1.020000000000000018e+00 1.997099606075593003e+00
1.040000000000000036e+00 1.967699909690990401e+00
1.060000000000000053e+00 1.939145392653002453e+00
1.080000000000000071e+00 1.911403347616206450e+00
1.100000000000000089e+00 1.884442494469296792e+00
1.120000000000000107e+00 1.858232888201166277e+00
1.140000000000000124e+00 1.832745900488725432e+00
1.159999999999999920e+00 1.807954128569732699e+00
1.179999999999999938e+00 1.783831379626759528e+00
1.199999999999999956e+00 1.760352581612971035e+00
1.219999999999999973e+00 1.737493771127759823e+00
1.239999999999999991e+00 1.715232006759962458e+00
1.260000000000000009e+00 1.693545360826381518e+00
1.280000000000000027e+00 1.672412835520543428e+00
1.300000000000000044e+00 1.651814358659033477e+00
1.320000000000000062e+00 1.631730702739419003e+00
1.340000000000000080e+00 1.612143484684660732e+00
1.360000000000000098e+00 1.593035087783534642e+00
1.380000000000000115e+00 1.574388665321263314e+00
1.400000000000000133e+00 1.556188065296879364e+00
1.419999999999999929e+00 1.538417837763558005e+00
1.439999999999999947e+00 1.521063162163853066e+00
1.459999999999999964e+00 1.504109858165476377e+00
1.479999999999999982e+00 1.487544315430453734e+00
1.500000000000000000e+00 1.471353507712933828e+00
1.520000000000000018e+00 1.455524924863244030e+00
1.540000000000000036e+00 1.440046589948206224e+00
1.560000000000000053e+00 1.424906993292072821e+00
1.580000000000000071e+00 1.410095112382216076e+00
1.600000000000000089e+00 1.395600347751762449e+00
1.620000000000000107e+00 1.381412545441610185e+00
1.640000000000000124e+00 1.367521934541745976e+00
1.660000000000000142e+00 1.353919151991937353e+00
1.679999999999999938e+00 1.340595181608804198e+00
1.699999999999999956e+00 1.327541381020904021e+00
1.719999999999999973e+00 1.314749422024505510e+00
1.739999999999999991e+00 1.302211319462899919e+00
1.760000000000000009e+00 1.289919372765870875e+00
1.780000000000000027e+00 1.277866196597380766e+00
1.800000000000000044e+00 1.266044663449715557e+00
1.820000000000000062e+00 1.254447935897625266e+00
1.840000000000000080e+00 1.243069410129655106e+00
1.860000000000000098e+00 1.231902749660138907e+00
1.880000000000000115e+00 1.220941829694797809e+00
1.900000000000000133e+00 1.210180772164453522e+00
1.919999999999999929e+00 1.199613890832027296e+00
1.939999999999999947e+00 1.189235727523445751e+00
1.959999999999999964e+00 1.179040997895819842e+00
1.979999999999999982e+00 1.169024628751618833e+00
2.000000000000000000e+00 1.159181704396121004e+00
2.020000000000000018e+00 1.149507504930714408e+00
2.040000000000000036e+00 1.139997453138354988e+00
2.060000000000000053e+00 1.130647153660650384e+00
2.080000000000000071e+00 1.121452340356705824e+00
2.100000000000000089e+00 1.112408916276693027e+00
2.120000000000000107e+00 1.103512901448322925e+00
2.140000000000000124e+00 1.094760473566812609e+00
2.160000000000000142e+00 1.086147916168352046e+00
2.180000000000000160e+00 1.077671659962917694e+00
2.200000000000000178e+00 1.069328231361456272e+00
2.220000000000000195e+00 1.061114294383834977e+00
2.240000000000000213e+00 1.053026599510329175e+00
2.260000000000000231e+00 1.045062026102305142e+00
2.280000000000000249e+00 1.037217531554643912e+00
2.300000000000000266e+00 1.029490194171480022e+00
2.319999999999999840e+00 1.021877162599052147e+00
2.339999999999999858e+00 1.014375699103084116e+00
2.359999999999999876e+00 1.006983129266570742e+00
2.379999999999999893e+00 9.996968856191988939e-01
2.399999999999999911e+00 9.925144575865886276e-01
2.419999999999999929e+00 9.854334354256244488e-01
2.439999999999999947e+00 9.784514604158313089e-01
2.459999999999999964e+00 9.715662690575666005e-01
2.479999999999999982e+00 9.647756434975659490e-01
2.500000000000000000e+00 9.580774559497615694e-01
2.520000000000000018e+00 9.514696193505143285e-01
2.540000000000000036e+00 9.449501319643343056e-01
2.560000000000000053e+00 9.385170282651357221e-01
2.580000000000000071e+00 9.321684236914362653e-01
2.600000000000000089e+00 9.259024657528955871e-01
2.620000000000000107e+00 9.197173789016425127e-01
2.640000000000000124e+00 9.136114158637641536e-01
2.660000000000000142e+00 9.075829025952709683e-01
2.680000000000000160e+00 9.016301898407331761e-01
2.700000000000000178e+00 8.957516981440797332e-01
2.720000000000000195e+00 8.899458696366383537e-01
2.740000000000000213e+00 8.842112130745459764e-01
2.760000000000000231e+00 8.785462558605950933e-01
2.780000000000000249e+00 8.729495890814469305e-01
2.800000000000000266e+00 8.674198197675008215e-01
2.819999999999999840e+00 8.619556159043940680e-01
2.839999999999999858e+00 8.565556589369924811e-01
2.859999999999999876e+00 8.512186887308662575e-01
2.879999999999999893e+00 8.459434563260824769e-01
2.899999999999999911e+00 8.407287688254471147e-01
2.919999999999999929e+00 8.355734424054631626e-01
2.939999999999999947e+00 8.304763471091078930e-01
2.959999999999999964e+00 8.254363601207442835e-01
2.979999999999999982e+00 8.204524104421977437e-01
3.000000000000000000e+00 8.155234324398552559e-01
3.020000000000000018e+00 8.106484103836631983e-01
3.040000000000000036e+00 8.058263322739716017e-01
3.060000000000000053e+00 8.010562342238750633e-01
3.080000000000000071e+00 7.963371545747112146e-01
3.100000000000000089e+00 7.916681781029101250e-01
3.120000000000000107e+00 7.870483904322471691e-01
3.140000000000000124e+00 7.824769220471036180e-01
3.160000000000000142e+00 7.779529030107760201e-01
3.180000000000000160e+00 7.734755067677234752e-01
3.200000000000000178e+00 7.690439051763420242e-01
3.220000000000000195e+00 7.646573120834142534e-01
3.240000000000000213e+00 7.603149386808838450e-01
3.260000000000000231e+00 7.560160368363029182e-01
3.280000000000000249e+00 7.517598547822135213e-01
3.300000000000000266e+00 7.475456801869453383e-01
3.320000000000000284e+00 7.433727961862438560e-01
3.339999999999999858e+00 7.392405241793277293e-01
3.359999999999999876e+00 7.351481802113991604e-01
3.379999999999999893e+00 7.310951174803687058e-01
3.399999999999999911e+00 7.270806830798799414e-01
3.419999999999999929e+00 7.231042602026036548e-01
3.439999999999999947e+00 7.191652252523555999e-01
3.459999999999999964e+00 7.152629897303327544e-01
3.479999999999999982e+00 7.113969577258386634e-01
3.500000000000000000e+00 7.075665674722930731e-01
3.520000000000000018e+00 7.037712492250033369e-01
3.540000000000000036e+00 7.000104664741911842e-01
3.560000000000000053e+00 6.962836742191643724e-01
3.580000000000000071e+00 6.925903598260265692e-01
3.600000000000000089e+00 6.889300017064849957e-01
3.620000000000000107e+00 6.853021098083141860e-01
3.640000000000000124e+00 6.817061847079106673e-01
3.660000000000000142e+00 6.781417577219840398e-01
3.680000000000000160e+00 6.746083504218221005e-01
3.700000000000000178e+00 6.711055143550346269e-01
3.720000000000000195e+00 6.676327909903919666e-01
3.740000000000000213e+00 6.641897510388228287e-01
3.760000000000000231e+00 6.607759548364854352e-01
3.780000000000000249e+00 6.573909912545754519e-01
3.800000000000000266e+00 6.540344385291778639e-01
3.820000000000000284e+00 6.507059027497752446e-01
3.839999999999999858e+00 6.474049791432310297e-01
3.859999999999999876e+00 6.441312901312262751e-01
3.879999999999999893e+00 6.408844470765723278e-01
3.899999999999999911e+00 6.376640879001466145e-01
3.919999999999999929e+00 6.344698392965213429e-01
3.939999999999999947e+00 6.313013539012742870e-01
3.959999999999999964e+00 6.281582729837900114e-01
3.979999999999999982e+00 6.250402631561150502e-01
4.000000000000000000e+00 6.219469795495797815e-01
4.020000000000000462e+00 6.188781020566787028e-01
4.040000000000000036e+00 6.158332989989839801e-01
4.060000000000000497e+00 6.128122628938376115e-01
4.080000000000000071e+00 6.098146746198216395e-01
4.099999999999999645e+00 6.068402387003261067e-01
4.120000000000000107e+00 6.038886479736732538e-01
4.139999999999999680e+00 6.009596183859003959e-01
4.160000000000000142e+00 5.980528541714477120e-01
4.179999999999999716e+00 5.951680821477564054e-01
4.200000000000000178e+00 5.923050174132372669e-01
4.219999999999999751e+00 5.894633971365923486e-01
4.240000000000000213e+00 5.866429467775536866e-01
4.259999999999999787e+00 5.838434133640642010e-01
4.280000000000000249e+00 5.810645322421568171e-01
4.299999999999999822e+00 5.783060598343866543e-01
4.320000000000000284e+00 5.755677409239634557e-01
4.339999999999999858e+00 5.728493408880832582e-01
4.360000000000000320e+00 5.701506135223058935e-01
4.379999999999999893e+00 5.674713327426844645e-01
4.400000000000000355e+00 5.648112609550994812e-01
4.419999999999999929e+00 5.621701802203200593e-01
4.440000000000000391e+00 5.595478611739260755e-01
4.459999999999999964e+00 5.569440936486542704e-01
4.480000000000000426e+00 5.543586561492813702e-01
4.500000000000000000e+00 5.517913459268135590e-01
4.520000000000000462e+00 5.492419490136041249e-01
4.540000000000000036e+00 5.467102697442121073e-01
4.560000000000000497e+00 5.441961013547290671e-01
4.580000000000000071e+00 5.416992549453221173e-01
4.600000000000000533e+00 5.392195306486958772e-01
4.620000000000000107e+00 5.367567460295525894e-01
4.639999999999999680e+00 5.343107078258251263e-01
4.660000000000000142e+00 5.318812397804787429e-01
4.679999999999999716e+00 5.294681549601011339e-01
4.700000000000000178e+00 5.270712830146865313e-01
4.719999999999999751e+00 5.246904430768651872e-01
4.740000000000000213e+00 5.223254704454932673e-01
4.759999999999999787e+00 5.199761900697882355e-01
4.780000000000000249e+00 5.176424426527339584e-01
4.799999999999999822e+00 5.153240587230785152e-01
4.820000000000000284e+00 5.130208841547609921e-01
4.839999999999999858e+00 5.107327548307093457e-01
4.860000000000000320e+00 5.084595215746676722e-01
4.879999999999999893e+00 5.062010254094344575e-01
4.900000000000000355e+00 5.039571218976377498e-01
4.919999999999999929e+00 5.017276569980627654e-01
4.940000000000000391e+00 4.995124908120990859e-01
4.959999999999999964e+00 4.973114740404871448e-01
4.980000000000000426e+00 4.951244711323020686e-01
5.000000000000000000e+00 4.929513373455073344e-01
5.020000000000000462e+00 4.907919412955223382e-01
5.040000000000000036e+00 4.886461426215951698e-01
5.060000000000000497e+00 4.865138139321606991e-01
5.080000000000000071e+00 4.843948190801402043e-01
5.100000000000000533e+00 4.822890345024227199e-01
5.120000000000000107e+00 4.801963281058575506e-01
5.139999999999999680e+00 4.781165799983358444e-01
5.160000000000000142e+00 4.760496619883376468e-01
5.179999999999999716e+00 4.739954577052408746e-01
5.200000000000000178e+00 4.719538427139113312e-01
5.219999999999999751e+00 4.699247040219934890e-01
5.240000000000000213e+00 4.679079208121778577e-01
5.259999999999999787e+00 4.659033833343509956e-01
5.280000000000000249e+00 4.639109742567900097e-01
5.299999999999999822e+00 4.619305869411839960e-01
5.320000000000000284e+00 4.599621074151575284e-01
5.339999999999999858e+00 4.580054320283101221e-01
5.360000000000000320e+00 4.560604500470656353e-01
5.379999999999999893e+00 4.541270606899709961e-01
5.400000000000000355e+00 4.522051563471063962e-01
5.419999999999999929e+00 4.502946389929775028e-01
5.440000000000000391e+00 4.483954040312890243e-01
5.459999999999999964e+00 4.465073560838891398e-01
5.480000000000000426e+00 4.446303934629414756e-01
5.500000000000000000e+00 4.427644233344797398e-01
5.520000000000000462e+00 4.409093468185704134e-01
5.540000000000000036e+00 4.390650735261401039e-01
5.560000000000000497e+00 4.372315072889944587e-01
5.580000000000000071e+00 4.354085600686612989e-01
5.600000000000000533e+00 4.335961383166870853e-01
5.620000000000000107e+00 4.317941562543198275e-01
5.639999999999999680e+00 4.300025228648097220e-01
5.660000000000000142e+00 4.282211545428492583e-01
5.679999999999999716e+00 4.264499627191195019e-01
5.700000000000000178e+00 4.246888658784805370e-01
5.719999999999999751e+00 4.229377778183609493e-01
5.740000000000000213e+00 4.211966190347565808e-01
5.759999999999999787e+00 4.194653056145636882e-01
5.780000000000000249e+00 4.177437599885198138e-01
5.799999999999999822e+00 4.160319004589584924e-01
5.820000000000000284e+00 4.143296513188958197e-01
5.839999999999999858e+00 4.126369330151554715e-01
5.860000000000000320e+00 4.109536716328687778e-01
5.879999999999999893e+00 4.092797896953559444e-01
5.900000000000000355e+00 4.076152150133486862e-01
5.919999999999999929e+00 4.059598721214676686e-01
5.940000000000000391e+00 4.043136904915379248e-01
5.959999999999999964e+00 4.026765966069626446e-01
5.980000000000000426e+00 4.010485215395413472e-01
6.000000000000000000e+00 3.994293936614887186e-01
6.020000000000000462e+00 3.978191455852087000e-01
6.040000000000000036e+00 3.962177075141852245e-01
6.060000000000000497e+00 3.946250135452143426e-01
6.080000000000000071e+00 3.930409956578300168e-01
6.100000000000000533e+00 3.914655893785157215e-01
6.120000000000000107e+00 3.898987284098421324e-01
6.140000000000000568e+00 3.883403496562358725e-01
6.160000000000000142e+00 3.867903884924072666e-01
6.179999999999999716e+00 3.852487831502643401e-01
6.200000000000000178e+00 3.837154706277778882e-01
6.219999999999999751e+00 3.821903904366534266e-01
6.240000000000000213e+00 3.806734811511677252e-01
6.259999999999999787e+00 3.791646835162296170e-01
6.280000000000000249e+00 3.776639376373091550e-01
6.299999999999999822e+00 3.761711854485397799e-01
6.320000000000000284e+00 3.746863685432307856e-01
6.339999999999999858e+00 3.732094300016673971e-01
6.360000000000000320e+00 3.717403128633232634e-01
6.379999999999999893e+00 3.702789613140380354e-01
6.400000000000000355e+00 3.688253197993886512e-01
6.419999999999999929e+00 3.673793335709061303e-01
6.440000000000000391e+00 3.659409484417412428e-01
6.459999999999999964e+00 3.645101106916084355e-01
6.480000000000000426e+00 3.630867674641815590e-01
6.500000000000000000e+00 3.616708660304263634e-01
6.520000000000000462e+00 3.602623548288926836e-01
6.540000000000000036e+00 3.588611820871079883e-01
6.560000000000000497e+00 3.574672975042024747e-01
6.580000000000000071e+00 3.560806502300130072e-01
6.600000000000000533e+00 3.547011911912489324e-01
6.620000000000000107e+00 3.533288704279460846e-01
6.640000000000000568e+00 3.519636400626265371e-01
6.660000000000000142e+00 3.506054509937192587e-01
6.679999999999999716e+00 3.492542565089773454e-01
6.700000000000000178e+00 3.479100083354751405e-01
6.719999999999999751e+00 3.465726608967529265e-01
6.740000000000000213e+00 3.452421667189715104e-01
6.759999999999999787e+00 3.439184813331010449e-01
6.780000000000000249e+00 3.426015580367968716e-01
6.799999999999999822e+00 3.412913534411560201e-01
6.820000000000000284e+00 3.399878215878134879e-01
6.839999999999999858e+00 3.386909201416914428e-01
6.860000000000000320e+00 3.374006038627925808e-01
6.879999999999999893e+00 3.361168314445174832e-01
6.900000000000000355e+00 3.348395583396102104e-01
6.919999999999999929e+00 3.335687442455319007e-01
6.940000000000000391e+00 3.323043452839711254e-01
6.959999999999999964e+00 3.310463221329150163e-01
6.980000000000000426e+00 3.297946315590868926e-01
7.000000000000000000e+00 3.285492351983252957e-01
7.020000000000000462e+00 3.273100904402567179e-01
7.040000000000000036e+00 3.260771598567079876e-01
7.060000000000000497e+00 3.248504014378781890e-01
7.080000000000000071e+00 3.236297786705066293e-01
7.100000000000000533e+00 3.224152501247660729e-01
7.120000000000000107e+00 3.212067801819927237e-01
7.140000000000000568e+00 3.200043279714427924e-01
7.160000000000000142e+00 3.188078587494607707e-01
7.179999999999999716e+00 3.176173321851933351e-01
7.200000000000000178e+00 3.164327143911019879e-01
7.219999999999999751e+00 3.152539655566592991e-01
7.240000000000000213e+00 3.140810526322302398e-01
7.259999999999999787e+00 3.129139363097127591e-01
7.280000000000000249e+00 3.117525843598035196e-01
7.299999999999999822e+00 3.105969579584753060e-01
7.320000000000000284e+00 3.094470256798124708e-01
7.339999999999999858e+00 3.083027491671525011e-01
7.360000000000000320e+00 3.071640977816255669e-01
7.379999999999999893e+00 3.060310336166959799e-01
7.400000000000000355e+00 3.049035268047781133e-01
7.419999999999999929e+00 3.037815398738376582e-01
7.440000000000000391e+00 3.026650437123671877e-01
7.459999999999999964e+00 3.015540012666236280e-01
7.480000000000000426e+00 3.004483841665109289e-01
7.500000000000000000e+00 2.993481557619566691e-01
7.520000000000000462e+00 2.982532884101237181e-01
7.540000000000000036e+00 2.971637458493436301e-01
7.560000000000000497e+00 2.960795011503946084e-01
7.580000000000000071e+00 2.950005184263042590e-01
7.600000000000000533e+00 2.939267714482990401e-01
7.620000000000000107e+00 2.928582246896961894e-01
7.640000000000000568e+00 2.917948526094765738e-01
7.660000000000000142e+00 2.907366200283953428e-01
7.679999999999999716e+00 2.896835020809365169e-01
7.700000000000000178e+00 2.886354639216691109e-01
7.719999999999999751e+00 2.875924813487712450e-01
7.740000000000000213e+00 2.865545198385539005e-01
7.759999999999999787e+00 2.855215558415001298e-01
7.780000000000000249e+00 2.844935551427608122e-01
7.799999999999999822e+00 2.834704948341383313e-01
7.820000000000000284e+00 2.824523409982724331e-01
7.839999999999999858e+00 2.814390713576938041e-01
7.860000000000000320e+00 2.804306522802877955e-01
7.879999999999999893e+00 2.794270621091073936e-01
