# Electrodo circular de radio 6 mm y espesor 710.0 um.
# Volumen de simulacion (convencion z,y,x):
# N: 1024 x 1024 x 1024 | voxelSize:  0.02mm x 0.02mm x 0.02mm | FOV:  20.48mm x 20.48mm x 20.48mm
# 
# z [mm]		 delta[ppm]
0.000000000000000000e+00 2.890588130560131308e+00
2.000000000000000042e-02 2.884356665523635677e+00
4.000000000000000083e-02 2.877953574275909698e+00
5.999999999999999778e-02 2.871381390386604782e+00
8.000000000000000167e-02 2.864642741701707962e+00
1.000000000000000056e-01 2.857740310758610125e+00
1.199999999999999956e-01 2.850676817206732938e+00
1.400000000000000133e-01 2.843455026043965717e+00
1.600000000000000033e-01 2.836077737685814171e+00
1.799999999999999933e-01 2.828547792573960606e+00
2.000000000000000111e-01 2.820868061913442748e+00
2.200000000000000011e-01 2.813041452183994817e+00
2.399999999999999911e-01 2.805070895334031533e+00
2.600000000000000089e-01 2.796959353807151771e+00
2.800000000000000266e-01 2.788709810285768143e+00
2.999999999999999889e-01 2.780325273189325763e+00
3.200000000000000067e-01 2.771808766031010229e+00
3.400000000000000244e-01 2.763163333369893948e+00
3.599999999999999867e-01 2.754392029810615039e+00
3.800000000000000044e-01 2.745497926397208133e+00
4.000000000000000222e-01 2.736484099301964346e+00
4.199999999999999845e-01 2.727353636656011382e+00
4.400000000000000022e-01 2.718109626937837753e+00
4.600000000000000200e-01 2.708755166239988021e+00
4.799999999999999822e-01 2.699293346390450488e+00
5.000000000000000000e-01 2.689727262654598494e+00
5.200000000000000178e-01 2.680060001595935049e+00
5.400000000000000355e-01 2.670294649214213667e+00
5.600000000000000533e-01 2.660434278570703359e+00
5.799999999999999600e-01 2.650481958361828205e+00
5.999999999999999778e-01 2.640440740314098811e+00
6.199999999999999956e-01 2.630313668193154264e+00
6.400000000000000133e-01 2.620103764987944395e+00
6.600000000000000311e-01 2.609814042353257868e+00
6.800000000000000488e-01 2.599447487587384753e+00
7.000000000000000666e-01 2.589007073506141676e+00
7.199999999999999734e-01 2.578495745229371749e+00
7.399999999999999911e-01 2.567916430482787060e+00
7.600000000000000089e-01 2.557272026196608650e+00
7.800000000000000266e-01 2.546565409231154486e+00
8.000000000000000444e-01 2.535799422799668079e+00
8.200000000000000622e-01 2.524976887612025322e+00
8.399999999999999689e-01 2.514100588124187130e+00
8.599999999999999867e-01 2.503173284093927808e+00
8.800000000000000044e-01 2.492197696666254902e+00
9.000000000000000222e-01 2.481176520333748137e+00
9.200000000000000400e-01 2.470112408859550968e+00
9.400000000000000577e-01 2.459007987634346470e+00
9.599999999999999645e-01 2.447865839444187230e+00
9.799999999999999822e-01 2.436688517215081617e+00
1.000000000000000000e+00 2.425478529626541313e+00
1.020000000000000018e+00 2.414238354234254036e+00
1.040000000000000036e+00 2.402970422934979755e+00
1.060000000000000053e+00 2.391677135456916847e+00
1.080000000000000071e+00 2.380360844676320475e+00
1.100000000000000089e+00 2.369023870464767700e+00
1.120000000000000107e+00 2.357668484861943359e+00
1.140000000000000124e+00 2.346296926268293337e+00
1.159999999999999920e+00 2.334911384474088525e+00
1.179999999999999938e+00 2.323514015185703219e+00
1.199999999999999956e+00 2.312106924914558270e+00
1.219999999999999973e+00 2.300692185824753100e+00
1.239999999999999991e+00 2.289271820481904030e+00
1.260000000000000009e+00 2.277847817009666986e+00
1.280000000000000027e+00 2.266422113701635155e+00
1.300000000000000044e+00 2.254996614473911531e+00
1.320000000000000062e+00 2.243573173340238203e+00
1.340000000000000080e+00 2.232153610147733946e+00
1.360000000000000098e+00 2.220739694918203000e+00
1.380000000000000115e+00 2.209333163853939297e+00
1.400000000000000133e+00 2.197935703545687680e+00
1.419999999999999929e+00 2.186548967235422580e+00
1.439999999999999947e+00 2.175174558893969934e+00
1.459999999999999964e+00 2.163814049727581068e+00
1.479999999999999982e+00 2.152468962126139029e+00
1.500000000000000000e+00 2.141140786400435037e+00
1.520000000000000018e+00 2.129830964604218391e+00
1.540000000000000036e+00 2.118540907489051772e+00
1.560000000000000053e+00 2.107271978201721296e+00
1.580000000000000071e+00 2.096025509443720125e+00
1.600000000000000089e+00 2.084802787047651762e+00
1.620000000000000107e+00 2.073605067328445628e+00
1.640000000000000124e+00 2.062433560540906985e+00
1.660000000000000142e+00 2.051289448409984395e+00
1.679999999999999938e+00 2.040173867473562552e+00
1.699999999999999956e+00 2.029087926779193918e+00
1.719999999999999973e+00 2.018032691115016153e+00
1.739999999999999991e+00 2.007009198860564947e+00
1.760000000000000009e+00 1.996018445110471662e+00
1.780000000000000027e+00 1.985061399667140236e+00
1.800000000000000044e+00 1.974138990060799737e+00
1.820000000000000062e+00 1.963252119672064033e+00
1.840000000000000080e+00 1.952401650653579734e+00
1.860000000000000098e+00 1.941588422170614781e+00
1.880000000000000115e+00 1.930813233228614312e+00
1.900000000000000133e+00 1.920076861020237446e+00
1.919999999999999929e+00 1.909380043664603344e+00
1.939999999999999947e+00 1.898723498649375729e+00
1.959999999999999964e+00 1.888107905486686056e+00
1.979999999999999982e+00 1.877533924239056073e+00
2.000000000000000000e+00 1.867002178098376097e+00
2.020000000000000018e+00 1.856513271984655100e+00
2.040000000000000036e+00 1.846067775053670701e+00
2.060000000000000053e+00 1.835666239357747642e+00
2.080000000000000071e+00 1.825309182288971099e+00
2.100000000000000089e+00 1.814997105291346724e+00
2.120000000000000107e+00 1.804730476245822279e+00
2.140000000000000124e+00 1.794509748223376944e+00
2.160000000000000142e+00 1.784335341819210941e+00
2.180000000000000160e+00 1.774207663936497203e+00
2.200000000000000178e+00 1.764127090076489157e+00
2.220000000000000195e+00 1.754093983142819502e+00
2.240000000000000213e+00 1.744108675695350996e+00
2.260000000000000231e+00 1.734171488765033020e+00
2.280000000000000249e+00 1.724282714078734458e+00
2.300000000000000266e+00 1.714442632874845662e+00
2.319999999999999840e+00 1.704651498107273122e+00
2.339999999999999858e+00 1.694909553252097689e+00
2.359999999999999876e+00 1.685217014498388233e+00
2.379999999999999893e+00 1.675574089536345568e+00
2.399999999999999911e+00 1.665980959743442735e+00
2.419999999999999929e+00 1.656437798944616624e+00
2.439999999999999947e+00 1.646944755601738919e+00
2.459999999999999964e+00 1.637501971536499790e+00
2.479999999999999982e+00 1.628109564132010023e+00
2.500000000000000000e+00 1.618767645009127065e+00
2.520000000000000018e+00 1.609476302248480373e+00
2.540000000000000036e+00 1.600235619011102006e+00
2.560000000000000053e+00 1.591045655789884883e+00
2.580000000000000071e+00 1.581906468965422530e+00
2.600000000000000089e+00 1.572818093095456282e+00
2.620000000000000107e+00 1.563780559396945602e+00
2.640000000000000124e+00 1.554793878082664005e+00
2.660000000000000142e+00 1.545858056760578192e+00
2.680000000000000160e+00 1.536973082826342374e+00
2.700000000000000178e+00 1.528138941771100878e+00
2.720000000000000195e+00 1.519355599639217180e+00
2.740000000000000213e+00 1.510623021235676156e+00
2.760000000000000231e+00 1.501941152657933376e+00
2.780000000000000249e+00 1.493309939394173558e+00
2.800000000000000266e+00 1.484729308938693038e+00
2.819999999999999840e+00 1.476199188772272075e+00
2.839999999999999858e+00 1.467719489070108851e+00
2.859999999999999876e+00 1.459290120555648329e+00
2.879999999999999893e+00 1.450910977310521544e+00
2.899999999999999911e+00 1.442581954493187490e+00
2.919999999999999929e+00 1.434302931259992642e+00
2.939999999999999947e+00 1.426073788339977666e+00
2.959999999999999964e+00 1.417894391076583771e+00
2.979999999999999982e+00 1.409764606850067548e+00
3.000000000000000000e+00 1.401684288248953969e+00
3.020000000000000018e+00 1.393653290331527295e+00
3.040000000000000036e+00 1.385671453936555775e+00
3.060000000000000053e+00 1.377738622775305233e+00
3.080000000000000071e+00 1.369854626890723903e+00
3.100000000000000089e+00 1.362019299571448627e+00
3.120000000000000107e+00 1.354232460968972429e+00
3.140000000000000124e+00 1.346493934825157446e+00
3.160000000000000142e+00 1.338803532256537254e+00
3.180000000000000160e+00 1.331161068286875526e+00
3.200000000000000178e+00 1.323566345808082634e+00
3.220000000000000195e+00 1.316019171909375896e+00
3.240000000000000213e+00 1.308519342023944265e+00
3.260000000000000231e+00 1.301066656046267811e+00
3.280000000000000249e+00 1.293660902674001800e+00
3.300000000000000266e+00 1.286301875305014830e+00
3.320000000000000284e+00 1.278989356583597692e+00
3.339999999999999858e+00 1.271723134068827088e+00
3.359999999999999876e+00 1.264502984994492429e+00
3.379999999999999893e+00 1.257328691700384304e+00
3.399999999999999911e+00 1.250200026615011506e+00
3.419999999999999929e+00 1.243116767441429626e+00
3.439999999999999947e+00 1.236078682372087512e+00
3.459999999999999964e+00 1.229085545020829784e+00
3.479999999999999982e+00 1.222137119878882627e+00
3.500000000000000000e+00 1.215233176984673591e+00
3.520000000000000018e+00 1.208373477630233284e+00
3.540000000000000036e+00 1.201557788760486689e+00
3.560000000000000053e+00 1.194785868939024498e+00
3.580000000000000071e+00 1.188057482468528159e+00
3.600000000000000089e+00 1.181372385625119259e+00
3.620000000000000107e+00 1.174730340491605407e+00
3.640000000000000124e+00 1.168131101469278788e+00
3.660000000000000142e+00 1.161574428815699278e+00
3.680000000000000160e+00 1.155060075443049783e+00
3.700000000000000178e+00 1.148587800152160776e+00
3.720000000000000195e+00 1.142157354726258234e+00
3.740000000000000213e+00 1.135768496852956222e+00
3.760000000000000231e+00 1.129420977522419101e+00
3.780000000000000249e+00 1.123114553629065204e+00
3.800000000000000266e+00 1.116848975682903866e+00
3.820000000000000284e+00 1.110624000082694351e+00
3.839999999999999858e+00 1.104439377149412760e+00
3.859999999999999876e+00 1.098294863062651228e+00
3.879999999999999893e+00 1.092190208224866455e+00
3.899999999999999911e+00 1.086125168852813294e+00
3.919999999999999929e+00 1.080099495681452026e+00
3.939999999999999947e+00 1.074112945202221781e+00
3.959999999999999964e+00 1.068165268715198124e+00
3.979999999999999982e+00 1.062256223206011319e+00
4.000000000000000000e+00 1.056385560755073394e+00
4.020000000000000462e+00 1.050553039044968662e+00
4.040000000000000036e+00 1.044758411135246812e+00
4.060000000000000497e+00 1.039001435592162847e+00
4.080000000000000071e+00 1.033281866637744795e+00
4.099999999999999645e+00 1.027599463893755116e+00
4.120000000000000107e+00 1.021953982913467840e+00
4.139999999999999680e+00 1.016345184531724621e+00
4.160000000000000142e+00 1.010772825788091245e+00
4.179999999999999716e+00 1.005236668874902595e+00
4.200000000000000178e+00 9.997364724601398578e-01
4.219999999999999751e+00 9.942720002254119560e-01
4.240000000000000213e+00 9.888430125971131579e-01
4.259999999999999787e+00 9.834492748662737593e-01
4.280000000000000249e+00 9.780905493362961334e-01
4.299999999999999822e+00 9.727666030166183253e-01
4.320000000000000284e+00 9.674772001955385115e-01
4.339999999999999858e+00 9.622221096996559364e-01
4.360000000000000320e+00 9.570010979000048712e-01
4.379999999999999893e+00 9.518139355292811743e-01
4.400000000000000355e+00 9.466603911296840312e-01
4.419999999999999929e+00 9.415402374199386415e-01
4.440000000000000391e+00 9.364532451930227541e-01
4.459999999999999964e+00 9.313991892249912086e-01
4.480000000000000426e+00 9.263778426309627889e-01
4.500000000000000000e+00 9.213889823077655583e-01
4.520000000000000462e+00 9.164323837562868835e-01
4.540000000000000036e+00 9.115078260500104612e-01
4.560000000000000497e+00 9.066150871320157734e-01
4.580000000000000071e+00 9.017539483014636037e-01
4.600000000000000533e+00 8.969241899933060314e-01
4.620000000000000107e+00 8.921255957747910026e-01
4.639999999999999680e+00 8.873579486161391472e-01
4.660000000000000142e+00 8.826210343891524035e-01
4.679999999999999716e+00 8.779146386368452681e-01
4.700000000000000178e+00 8.732385495662771113e-01
4.719999999999999751e+00 8.685925553253325271e-01
4.740000000000000213e+00 8.639764464818803225e-01
4.759999999999999787e+00 8.593900138156665980e-01
4.780000000000000249e+00 8.548330502759193816e-01
4.799999999999999822e+00 8.503053492965110260e-01
4.820000000000000284e+00 8.458067062241524381e-01
4.839999999999999858e+00 8.413369171647226974e-01
4.860000000000000320e+00 8.368957798742011622e-01
4.879999999999999893e+00 8.324830931442845916e-01
4.900000000000000355e+00 8.280986571482057412e-01
4.919999999999999929e+00 8.237422733735222380e-01
4.940000000000000391e+00 8.194137444149705019e-01
4.959999999999999964e+00 8.151128744625217859e-01
4.980000000000000426e+00 8.108394685334212593e-01
5.000000000000000000e+00 8.065933335233730350e-01
5.020000000000000462e+00 8.023742768699432260e-01
5.040000000000000036e+00 7.981821081749116420e-01
5.060000000000000497e+00 7.940166372912166315e-01
5.080000000000000071e+00 7.898776765243171738e-01
5.100000000000000533e+00 7.857650381348365576e-01
5.120000000000000107e+00 7.816785371269832083e-01
5.139999999999999680e+00 7.776179881590662424e-01
5.160000000000000142e+00 7.735832089267957734e-01
5.179999999999999716e+00 7.695740164738338329e-01
5.200000000000000178e+00 7.655902311780158342e-01
5.219999999999999751e+00 7.616316724540936889e-01
5.240000000000000213e+00 7.576981633507022806e-01
5.259999999999999787e+00 7.537895256374517183e-01
5.280000000000000249e+00 7.499055850206639562e-01
5.299999999999999822e+00 7.460461656069807823e-01
5.320000000000000284e+00 7.422110957456822256e-01
5.339999999999999858e+00 7.384002018609603368e-01
5.360000000000000320e+00 7.346133149288508468e-01
5.379999999999999893e+00 7.308502636703051447e-01
5.400000000000000355e+00 7.271108816705791345e-01
5.419999999999999929e+00 7.233949999252186069e-01
5.440000000000000391e+00 7.197024546099571873e-01
5.459999999999999964e+00 7.160330789717197497e-01
5.480000000000000426e+00 7.123867117568898344e-01
5.500000000000000000e+00 7.087631884394266502e-01
5.520000000000000462e+00 7.051623503155601824e-01
5.540000000000000036e+00 7.015840350611064480e-01
5.560000000000000497e+00 6.980280865004788726e-01
5.580000000000000071e+00 6.944943444852507142e-01
5.600000000000000533e+00 6.909826553455804543e-01
5.620000000000000107e+00 6.874928610820644215e-01
5.639999999999999680e+00 6.840248105074976381e-01
5.660000000000000142e+00 6.805783477440242590e-01
5.679999999999999716e+00 6.771533240633708095e-01
5.700000000000000178e+00 6.737495856812818484e-01
5.719999999999999751e+00 6.703669863042048815e-01
5.740000000000000213e+00 6.670053742129598007e-01
5.759999999999999787e+00 6.636646055240588149e-01
5.780000000000000249e+00 6.603445305545445621e-01
5.799999999999999822e+00 6.570450078059700827e-01
5.820000000000000284e+00 6.537658896023116339e-01
5.839999999999999858e+00 6.505070368048302409e-01
5.860000000000000320e+00 6.472683037149294938e-01
5.879999999999999893e+00 6.440495535280094108e-01
5.900000000000000355e+00 6.408506424930755507e-01
5.919999999999999929e+00 6.376714361138954290e-01
5.940000000000000391e+00 6.345117925571538420e-01
5.959999999999999964e+00 6.313715796090789700e-01
5.980000000000000426e+00 6.282506573238801906e-01
6.000000000000000000e+00 6.251488957442435934e-01
6.020000000000000462e+00 6.220661567817494797e-01
6.040000000000000036e+00 6.190023127094849142e-01
6.060000000000000497e+00 6.159572272660994718e-01
6.080000000000000071e+00 6.129307749290169305e-01
6.100000000000000533e+00 6.099228212337289845e-01
6.120000000000000107e+00 6.069332428359565101e-01
6.140000000000000568e+00 6.039619070377317822e-01
6.160000000000000142e+00 6.010086926470898927e-01
6.179999999999999716e+00 5.980734687024444884e-01
6.200000000000000178e+00 5.951561161382604714e-01
6.219999999999999751e+00 5.922565056991475618e-01
6.240000000000000213e+00 5.893745204202301968e-01
6.259999999999999787e+00 5.865100327223418120e-01
6.280000000000000249e+00 5.836629277156425433e-01
6.299999999999999822e+00 5.808330794672346142e-01
6.320000000000000284e+00 5.780203751368637732e-01
6.339999999999999858e+00 5.752246904081975698e-01
6.360000000000000320e+00 5.724459144653054610e-01
6.379999999999999893e+00 5.696839245787862493e-01
6.400000000000000355e+00 5.669386119319871353e-01
6.419999999999999929e+00 5.642098553530865424e-01
6.440000000000000391e+00 5.614975479998884911e-01
6.459999999999999964e+00 5.588015702289070852e-01
6.480000000000000426e+00 5.561218171478352623e-01
6.500000000000000000e+00 5.534581706125878409e-01
6.520000000000000462e+00 5.508105276564372321e-01
6.540000000000000036e+00 5.481787716058933446e-01
6.560000000000000497e+00 5.455628013957775080e-01
6.580000000000000071e+00 5.429625017947300458e-01
6.600000000000000533e+00 5.403777736153776434e-01
6.620000000000000107e+00 5.378085030401781319e-01
6.640000000000000568e+00 5.352545927361177514e-01
6.660000000000000142e+00 5.327159302715112066e-01
6.679999999999999716e+00 5.301924201445672447e-01
6.700000000000000178e+00 5.276839512816697830e-01
6.719999999999999751e+00 5.251904299894295525e-01
6.740000000000000213e+00 5.227117465248833916e-01
6.759999999999999787e+00 5.202478089805459005e-01
6.780000000000000249e+00 5.177985089168674060e-01
6.799999999999999822e+00 5.153637561901043274e-01
6.820000000000000284e+00 5.129434436372597439e-01
6.839999999999999858e+00 5.105374828565103495e-01
6.860000000000000320e+00 5.081457679347363143e-01
6.879999999999999893e+00 5.057682121905462402e-01
6.900000000000000355e+00 5.034047109344255144e-01
6.919999999999999929e+00 5.010551791842746683e-01
6.940000000000000391e+00 4.987195134480891801e-01
6.959999999999999964e+00 4.963976304222722513e-01
6.980000000000000426e+00 4.940894277866350048e-01
7.000000000000000000e+00 4.917948238956518225e-01
7.020000000000000462e+00 4.895137175754414316e-01
7.040000000000000036e+00 4.872460288184677912e-01
7.060000000000000497e+00 4.849916575720528145e-01
7.080000000000000071e+00 4.827505254469252605e-01
7.100000000000000533e+00 4.805225334866908837e-01
7.120000000000000107e+00 4.783076049009798436e-01
7.140000000000000568e+00 4.761056418051642369e-01
7.160000000000000142e+00 4.739165689887697708e-01
7.179999999999999716e+00 4.717402896146007385e-01
7.200000000000000178e+00 4.695767300334308114e-01
7.219999999999999751e+00 4.674257944315607927e-01
7.240000000000000213e+00 4.652874107027302752e-01
7.259999999999999787e+00 4.631614840329807414e-01
7.280000000000000249e+00 4.610479438410877706e-01
7.299999999999999822e+00 4.589466962894709345e-01
7.320000000000000284e+00 4.568576723043743515e-01
7.339999999999999858e+00 4.547807790014149476e-01
7.360000000000000320e+00 4.527159487970953688e-01
7.379999999999999893e+00 4.506630897374305222e-01
7.400000000000000355e+00 4.486221357123300058e-01
7.419999999999999929e+00 4.465929956755763652e-01
7.440000000000000391e+00 4.445756049739890692e-01
7.459999999999999964e+00 4.425698734468747064e-01
7.480000000000000426e+00 4.405757378818189740e-01
7.500000000000000000e+00 4.385931089815672257e-01
7.520000000000000462e+00 4.366219249586761331e-01
7.540000000000000036e+00 4.346620973576305058e-01
7.560000000000000497e+00 4.327135658005188956e-01
7.580000000000000071e+00 4.307762426519983201e-01
7.600000000000000533e+00 4.288500689285936196e-01
7.620000000000000107e+00 4.269349577939569595e-01
7.640000000000000568e+00 4.250308516443045415e-01
7.660000000000000142e+00 4.231376644212345717e-01
7.679999999999999716e+00 4.212553398862488030e-01
7.700000000000000178e+00 4.193837927382089714e-01
7.719999999999999751e+00 4.175229680898422946e-01
7.740000000000000213e+00 4.156727813767204238e-01
7.759999999999999787e+00 4.138331790490724638e-01
7.780000000000000249e+00 4.120040772589856348e-01
7.799999999999999822e+00 4.101854237808010839e-01
7.820000000000000284e+00 4.083771354630442163e-01
7.839999999999999858e+00 4.065791613911129421e-01
7.860000000000000320e+00 4.047914190902408560e-01
7.879999999999999893e+00 4.030138589441625285e-01
