# Electrodo circular de radio 6 mm y espesor 710.0 um.
# Volumen de simulacion (convencion z,y,x):
# N: 1024 x 1024 x 1024 | voxelSize:  0.02mm x 0.02mm x 0.02mm | FOV:  20.48mm x 20.48mm x 20.48mm
# 
# z [mm]		 delta[ppm]
0.000000000000000000e+00 4.311667497558024031e+00
2.000000000000000042e-02 4.276927484714583727e+00
4.000000000000000083e-02 4.241628403370213185e+00
5.999999999999999778e-02 4.205812922568465950e+00
8.000000000000000167e-02 4.169523702070393689e+00
1.000000000000000056e-01 4.132803110330667273e+00
1.199999999999999956e-01 4.095693080121290741e+00
1.400000000000000133e-01 4.058235019838618562e+00
1.600000000000000033e-01 4.020469704215565265e+00
1.799999999999999933e-01 3.982437193103385731e+00
2.000000000000000111e-01 3.944176732968224464e+00
2.200000000000000011e-01 3.905726687967501665e+00
2.399999999999999911e-01 3.867124451955740838e+00
2.600000000000000089e-01 3.828406393823926557e+00
2.800000000000000266e-01 3.789607781741091586e+00
2.999999999999999889e-01 3.750762743252764153e+00
3.200000000000000067e-01 3.711904202343871084e+00
3.400000000000000244e-01 3.673063854457554456e+00
3.599999999999999867e-01 3.634272116633852523e+00
3.800000000000000044e-01 3.595558117120153163e+00
4.000000000000000222e-01 3.556949658143616411e+00
4.199999999999999845e-01 3.518473219402058927e+00
4.400000000000000022e-01 3.480153932717194643e+00
4.600000000000000200e-01 3.442015598332189619e+00
4.799999999999999822e-01 3.404080670269130415e+00
5.000000000000000000e-01 3.366370284105235644e+00
5.200000000000000178e-01 3.328904251688267202e+00
5.400000000000000355e-01 3.291701098880543963e+00
5.600000000000000533e-01 3.254778068090430576e+00
5.799999999999999600e-01 3.218151164389443153e+00
5.999999999999999778e-01 3.181835164305879093e+00
6.199999999999999956e-01 3.145843668705864626e+00
6.400000000000000133e-01 3.110189116279018506e+00
6.600000000000000311e-01 3.074882841632183617e+00
6.800000000000000488e-01 3.039935092006727402e+00
7.000000000000000666e-01 3.005355089137816904e+00
7.199999999999999734e-01 2.971151047841744663e+00
7.399999999999999911e-01 2.937330240338095866e+00
7.600000000000000089e-01 2.903899015521571148e+00
7.800000000000000266e-01 2.870862864607839349e+00
8.000000000000000444e-01 2.838226440055692468e+00
8.200000000000000622e-01 2.805993621573372288e+00
8.399999999999999689e-01 2.774167533848900469e+00
8.599999999999999867e-01 2.742750612127366150e+00
8.800000000000000044e-01 2.711744618063640200e+00
9.000000000000000222e-01 2.681150704248595140e+00
9.200000000000000400e-01 2.650969427671914236e+00
9.400000000000000577e-01 2.621200812727794371e+00
9.599999999999999645e-01 2.591844361908886452e+00
9.799999999999999822e-01 2.562899116959043599e+00
1.000000000000000000e+00 2.534363666557251094e+00
1.020000000000000018e+00 2.506236205402311512e+00
1.040000000000000036e+00 2.478514538744533535e+00
1.060000000000000053e+00 2.451196139286623055e+00
1.080000000000000071e+00 2.424278148519301901e+00
1.100000000000000089e+00 2.397757431402955497e+00
1.120000000000000107e+00 2.371630574527635371e+00
1.140000000000000124e+00 2.345893938604048046e+00
1.159999999999999920e+00 2.320543653531650374e+00
1.179999999999999938e+00 2.295575668775850176e+00
1.199999999999999956e+00 2.270985745463171668e+00
1.219999999999999973e+00 2.246769504757116120e+00
1.239999999999999991e+00 2.222922417135120732e+00
1.260000000000000009e+00 2.199439848899456429e+00
1.280000000000000027e+00 2.176317048804552456e+00
1.300000000000000044e+00 2.153549192854375072e+00
1.320000000000000062e+00 2.131131368465012166e+00
1.340000000000000080e+00 2.109058617707194827e+00
1.360000000000000098e+00 2.087325919188661061e+00
1.380000000000000115e+00 2.065928229902218138e+00
1.400000000000000133e+00 2.044860465016205886e+00
1.419999999999999929e+00 2.024117538485413093e+00
1.439999999999999947e+00 2.003694340929224715e+00
1.459999999999999964e+00 1.983585779156647577e+00
1.479999999999999982e+00 1.963786752308347650e+00
1.500000000000000000e+00 1.944292190438359880e+00
1.520000000000000018e+00 1.925097029083375322e+00
1.540000000000000036e+00 1.906196247033831614e+00
1.560000000000000053e+00 1.887584839486839305e+00
1.580000000000000071e+00 1.869257855128404477e+00
1.600000000000000089e+00 1.851210368012175644e+00
1.620000000000000107e+00 1.833437514063385398e+00
1.640000000000000124e+00 1.815934461817460210e+00
1.660000000000000142e+00 1.798696448444997653e+00
1.679999999999999938e+00 1.781718749470385665e+00
1.699999999999999956e+00 1.764996714406233069e+00
1.719999999999999973e+00 1.748525735564236516e+00
1.739999999999999991e+00 1.732301283376934897e+00
1.760000000000000009e+00 1.716318874400397876e+00
1.780000000000000027e+00 1.700574106391377294e+00
1.800000000000000044e+00 1.685062625594334840e+00
1.820000000000000062e+00 1.669780161632836046e+00
1.840000000000000080e+00 1.654722494162377489e+00
1.860000000000000098e+00 1.639885487626461913e+00
1.880000000000000115e+00 1.625265057350798958e+00
1.900000000000000133e+00 1.610857204206747939e+00
1.919999999999999929e+00 1.596657980213059158e+00
1.939999999999999947e+00 1.582663523142425310e+00
1.959999999999999964e+00 1.568870021692254646e+00
1.979999999999999982e+00 1.555273750063747906e+00
2.000000000000000000e+00 1.541871032755345983e+00
2.020000000000000018e+00 1.528658279138135345e+00
2.040000000000000036e+00 1.515631947922081668e+00
2.060000000000000053e+00 1.502788581746522523e+00
2.080000000000000071e+00 1.490124771362788092e+00
2.100000000000000089e+00 1.477637190254130539e+00
2.120000000000000107e+00 1.465322558575794742e+00
2.140000000000000124e+00 1.453177677814762259e+00
2.160000000000000142e+00 1.441199394522975075e+00
2.180000000000000160e+00 1.429384635023871475e+00
2.200000000000000178e+00 1.417730368972718979e+00
2.220000000000000195e+00 1.406233644113865422e+00
2.240000000000000213e+00 1.394891549697746314e+00
2.260000000000000231e+00 1.383701251290178957e+00
2.280000000000000249e+00 1.372659954074473276e+00
2.300000000000000266e+00 1.361764937711814394e+00
2.319999999999999840e+00 1.351013519553284858e+00
2.339999999999999858e+00 1.340403089548405813e+00
2.359999999999999876e+00 1.329931073391298790e+00
2.379999999999999893e+00 1.319594967472722757e+00
2.399999999999999911e+00 1.309392301981571194e+00
2.419999999999999929e+00 1.299320675894338306e+00
2.439999999999999947e+00 1.289377720052921061e+00
2.459999999999999964e+00 1.279561132184154015e+00
2.479999999999999982e+00 1.269868639972377977e+00
2.500000000000000000e+00 1.260298036100665930e+00
2.520000000000000018e+00 1.250847141336655755e+00
2.540000000000000036e+00 1.241513839586179779e+00
2.560000000000000053e+00 1.232296041008726473e+00
2.580000000000000071e+00 1.223191717073468521e+00
2.600000000000000089e+00 1.214198863720956423e+00
2.620000000000000107e+00 1.205315536410920263e+00
2.640000000000000124e+00 1.196539813344968284e+00
2.660000000000000142e+00 1.187869830495021484e+00
2.680000000000000160e+00 1.179303744902213236e+00
2.700000000000000178e+00 1.170839769674395736e+00
2.720000000000000195e+00 1.162476137374805818e+00
2.740000000000000213e+00 1.154211134976790287e+00
2.760000000000000231e+00 1.146043067356303347e+00
2.780000000000000249e+00 1.137970292191732957e+00
2.800000000000000266e+00 1.129991183572872204e+00
2.819999999999999840e+00 1.122104166833537420e+00
2.839999999999999858e+00 1.114307682290233137e+00
2.859999999999999876e+00 1.106600219995121037e+00
2.879999999999999893e+00 1.098980283616296294e+00
2.899999999999999911e+00 1.091446425098585360e+00
2.919999999999999929e+00 1.083997208697984327e+00
2.939999999999999947e+00 1.076631245537698955e+00
2.959999999999999964e+00 1.069347157808085091e+00
2.979999999999999982e+00 1.062143613205385639e+00
3.000000000000000000e+00 1.055019289309144126e+00
3.020000000000000018e+00 1.047972907891094430e+00
3.040000000000000036e+00 1.041003199480913022e+00
3.060000000000000053e+00 1.034108937532768335e+00
3.080000000000000071e+00 1.027288903190953340e+00
3.100000000000000089e+00 1.020541919301649170e+00
3.120000000000000107e+00 1.013866815388928977e+00
3.140000000000000124e+00 1.007262461499400796e+00
3.160000000000000142e+00 1.000727733399720432e+00
3.180000000000000160e+00 9.942615462418943340e-01
3.200000000000000178e+00 9.878628199924227582e-01
3.220000000000000195e+00 9.815305129061767664e-01
3.240000000000000213e+00 9.752635871979574711e-01
3.260000000000000231e+00 9.690610423129683015e-01
3.280000000000000249e+00 9.629218808506301297e-01
3.300000000000000266e+00 9.568451416198330284e-01
3.320000000000000284e+00 9.508298658254659141e-01
3.339999999999999858e+00 9.448751298967713597e-01
3.359999999999999876e+00 9.389800119461527705e-01
3.379999999999999893e+00 9.331436243591156865e-01
3.399999999999999911e+00 9.273650805355210247e-01
3.419999999999999929e+00 9.216435272297623937e-01
3.439999999999999947e+00 9.159781115837510868e-01
3.459999999999999964e+00 9.103680132061570118e-01
3.479999999999999982e+00 9.048124115069993145e-01
3.500000000000000000e+00 8.993105175049537214e-01
3.520000000000000018e+00 8.938615414725680219e-01
3.540000000000000036e+00 8.884647244608058214e-01
3.560000000000000053e+00 8.831193062644997482e-01
3.580000000000000071e+00 8.778245566534743638e-01
3.600000000000000089e+00 8.725797436670034157e-01
3.620000000000000107e+00 8.673841645410476087e-01
3.640000000000000124e+00 8.622371143410394456e-01
3.660000000000000142e+00 8.571379165749710705e-01
3.680000000000000160e+00 8.520858921729883573e-01
3.700000000000000178e+00 8.470803897762155810e-01
3.720000000000000195e+00 8.421207550722552559e-01
3.740000000000000213e+00 8.372063607498250182e-01
3.760000000000000231e+00 8.323365761983805289e-01
3.780000000000000249e+00 8.275107971188337963e-01
3.800000000000000266e+00 8.227284155961140932e-01
3.820000000000000284e+00 8.179888493564029250e-01
3.839999999999999858e+00 8.132915122206100245e-01
3.859999999999999876e+00 8.086358429987524632e-01
3.879999999999999893e+00 8.040212763328760115e-01
3.899999999999999911e+00 7.994472712193920749e-01
3.919999999999999929e+00 7.949132822491530304e-01
3.939999999999999947e+00 7.904187877487406366e-01
3.959999999999999964e+00 7.859632614259608463e-01
3.979999999999999982e+00 7.815462001212353238e-01
4.000000000000000000e+00 7.771670958659927519e-01
4.020000000000000462e+00 7.728254632354953912e-01
4.040000000000000036e+00 7.685208118281129375e-01
4.060000000000000497e+00 7.642526732111143417e-01
4.080000000000000071e+00 7.600205738280245704e-01
4.099999999999999645e+00 7.558240615290665598e-01
4.120000000000000107e+00 7.516626789143268095e-01
4.139999999999999680e+00 7.475359894406933270e-01
4.160000000000000142e+00 7.434435512078094721e-01
4.179999999999999716e+00 7.393849426335197261e-01
4.200000000000000178e+00 7.353597366900563870e-01
4.219999999999999751e+00 7.313675261402121652e-01
4.240000000000000213e+00 7.274078982304441610e-01
4.259999999999999787e+00 7.234804594801211852e-01
4.280000000000000249e+00 7.195848108387671305e-01
4.299999999999999822e+00 7.157205720208856814e-01
4.320000000000000284e+00 7.118873571337871464e-01
4.339999999999999858e+00 7.080847985506654174e-01
4.360000000000000320e+00 7.043125230159703598e-01
4.379999999999999893e+00 7.005701750495706426e-01
4.400000000000000355e+00 6.968573935358416405e-01
4.419999999999999929e+00 6.931738346519100702e-01
4.440000000000000391e+00 6.895191489471671487e-01
4.459999999999999964e+00 6.858930037887278619e-01
4.480000000000000426e+00 6.822950609373291675e-01
4.500000000000000000e+00 6.787249985032568489e-01
4.520000000000000462e+00 6.751824890251080236e-01
4.540000000000000036e+00 6.716672209296314922e-01
4.560000000000000497e+00 6.681788771190416698e-01
4.580000000000000071e+00 6.647171559283351350e-01
4.600000000000000533e+00 6.612817502274049852e-01
4.620000000000000107e+00 6.578723678695358457e-01
4.639999999999999680e+00 6.544887113137917156e-01
4.660000000000000142e+00 6.511304975585354704e-01
4.679999999999999716e+00 6.477974382900882899e-01
4.700000000000000178e+00 6.444892592952625732e-01
4.719999999999999751e+00 6.412056811415363100e-01
4.740000000000000213e+00 6.379464380626956865e-01
4.759999999999999787e+00 6.347112591763317546e-01
4.780000000000000249e+00 6.314998868368110196e-01
4.799999999999999822e+00 6.283120583951256055e-01
4.820000000000000284e+00 6.251475240135634381e-01
4.839999999999999858e+00 6.220060289734762327e-01
4.860000000000000320e+00 6.188873309461254690e-01
4.879999999999999893e+00 6.157911828532001142e-01
4.900000000000000355e+00 6.127173495884269405e-01
4.919999999999999929e+00 6.096655914362154594e-01
4.940000000000000391e+00 6.066356802387474767e-01
4.959999999999999964e+00 6.036273833773684316e-01
4.980000000000000426e+00 6.006404793799610120e-01
5.000000000000000000e+00 5.976747424702928413e-01
5.020000000000000462e+00 5.947299576106026553e-01
5.040000000000000036e+00 5.918059056233138104e-01
5.060000000000000497e+00 5.889023776638763197e-01
5.080000000000000071e+00 5.860191609198647233e-01
5.100000000000000533e+00 5.831560525091906699e-01
5.120000000000000107e+00 5.803128457608489610e-01
5.139999999999999680e+00 5.774893435337238312e-01
5.160000000000000142e+00 5.746853450838260713e-01
5.179999999999999716e+00 5.719006587990196344e-01
5.200000000000000178e+00 5.691350896568322382e-01
5.219999999999999751e+00 5.663884513705045309e-01
5.240000000000000213e+00 5.636605544420779657e-01
5.259999999999999787e+00 5.609512177152545798e-01
5.280000000000000249e+00 5.582602570276856691e-01
5.299999999999999822e+00 5.555874961662328193e-01
5.320000000000000284e+00 5.529327561229979704e-01
5.339999999999999858e+00 5.502958654486523882e-01
5.360000000000000320e+00 5.476766501159801015e-01
5.379999999999999893e+00 5.450749432670060068e-01
5.400000000000000355e+00 5.424905756884930152e-01
5.419999999999999929e+00 5.399233849486585468e-01
5.440000000000000391e+00 5.373732064882730253e-01
5.459999999999999964e+00 5.348398821428460570e-01
5.480000000000000426e+00 5.323232518536313851e-01
5.500000000000000000e+00 5.298231615712216680e-01
5.520000000000000462e+00 5.273394555899770797e-01
5.540000000000000036e+00 5.248719838290419881e-01
5.560000000000000497e+00 5.224205947943968420e-01
5.580000000000000071e+00 5.199851422333512385e-01
5.600000000000000533e+00 5.175654787276385838e-01
5.620000000000000107e+00 5.151614617174974375e-01
5.639999999999999680e+00 5.127729477299258765e-01
5.660000000000000142e+00 5.103997977685154064e-01
5.679999999999999716e+00 5.080418721801752691e-01
5.700000000000000178e+00 5.056990354069413884e-01
5.719999999999999751e+00 5.033711514952045052e-01
5.740000000000000213e+00 5.010580882057485974e-01
5.759999999999999787e+00 4.987597131687167007e-01
5.780000000000000249e+00 4.964758973481758209e-01
5.799999999999999822e+00 4.942065118467957596e-01
5.820000000000000284e+00 4.919514307212781712e-01
5.839999999999999858e+00 4.897105284398945435e-01
5.860000000000000320e+00 4.874836820451591279e-01
5.879999999999999893e+00 4.852707692681548779e-01
5.900000000000000355e+00 4.830716700348350878e-01
5.919999999999999929e+00 4.808862652402436932e-01
5.940000000000000391e+00 4.787144375948726438e-01
5.959999999999999964e+00 4.765560710626597918e-01
5.980000000000000426e+00 4.744110510438451778e-01
6.000000000000000000e+00 4.722792644798142758e-01
6.020000000000000462e+00 4.701605993689144669e-01
6.040000000000000036e+00 4.680549455419978910e-01
6.060000000000000497e+00 4.659621935076833643e-01
6.080000000000000071e+00 4.638822359016365193e-01
6.100000000000000533e+00 4.618149656577608120e-01
6.120000000000000107e+00 4.597602781350632606e-01
6.140000000000000568e+00 4.577180686112786168e-01
6.160000000000000142e+00 4.556882350903367351e-01
6.179999999999999716e+00 4.536706751149234829e-01
6.200000000000000178e+00 4.516652892584032131e-01
6.219999999999999751e+00 4.496719772528119941e-01
6.240000000000000213e+00 4.476906421682642079e-01
6.259999999999999787e+00 4.457211858528763448e-01
6.280000000000000249e+00 4.437635138035198601e-01
6.299999999999999822e+00 4.418175299141734458e-01
6.320000000000000284e+00 4.398831420410568849e-01
6.339999999999999858e+00 4.379602560558886193e-01
6.360000000000000320e+00 4.360487821093030902e-01
6.379999999999999893e+00 4.341486279854872010e-01
6.400000000000000355e+00 4.322597060669381985e-01
6.419999999999999929e+00 4.303819259869222646e-01
6.440000000000000391e+00 4.285152022995252774e-01
6.459999999999999964e+00 4.266594464263711028e-01
6.480000000000000426e+00 4.248145750350567074e-01
6.500000000000000000e+00 4.229805012765281425e-01
6.520000000000000462e+00 4.211571438759164621e-01
6.540000000000000036e+00 4.193444176569495752e-01
6.560000000000000497e+00 4.175422433483386153e-01
6.580000000000000071e+00 4.157505373915661995e-01
6.600000000000000533e+00 4.139692224669134779e-01
6.620000000000000107e+00 4.121982165809311982e-01
6.640000000000000568e+00 4.104374443153241958e-01
6.660000000000000142e+00 4.086868251903670868e-01
6.679999999999999716e+00 4.069462856408356810e-01
6.700000000000000178e+00 4.052157466515926565e-01
6.719999999999999751e+00 4.034951364638547089e-01
6.740000000000000213e+00 4.017843774791327038e-01
6.759999999999999787e+00 4.000833997001100872e-01
6.780000000000000249e+00 3.983921268990731623e-01
6.799999999999999822e+00 3.967104907968007077e-01
6.820000000000000284e+00 3.950384164915376473e-01
6.839999999999999858e+00 3.933758373803177277e-01
6.860000000000000320e+00 3.917226798444856106e-01
6.879999999999999893e+00 3.900788789169587489e-01
6.900000000000000355e+00 3.884443622202593538e-01
6.919999999999999929e+00 3.868190663842431265e-01
6.940000000000000391e+00 3.852029202325269464e-01
6.959999999999999964e+00 3.835958619543210490e-01
6.980000000000000426e+00 3.819978215350734452e-01
7.000000000000000000e+00 3.804087386870884102e-01
7.020000000000000462e+00 3.788285445201245993e-01
7.040000000000000036e+00 3.772571802345827119e-01
7.060000000000000497e+00 3.756945780277233249e-01
7.080000000000000071e+00 3.741406805542638603e-01
7.100000000000000533e+00 3.725954210638153796e-01
7.120000000000000107e+00 3.710587436328158240e-01
7.140000000000000568e+00 3.695305825286761547e-01
7.160000000000000142e+00 3.680108832180888356e-01
7.179999999999999716e+00 3.664995809532993754e-01
7.200000000000000178e+00 3.649966225608797243e-01
7.219999999999999751e+00 3.635019442454476279e-01
7.240000000000000213e+00 3.620154941641394730e-01
7.259999999999999787e+00 3.605372094429960539e-01
7.280000000000000249e+00 3.590670395414115590e-01
7.299999999999999822e+00 3.576049224763140355e-01
7.320000000000000284e+00 3.561508089820333289e-01
7.339999999999999858e+00 3.547046379373013369e-01
7.360000000000000320e+00 3.532663613250084933e-01
7.379999999999999893e+00 3.518359188569318285e-01
7.400000000000000355e+00 3.504132637390601768e-01
7.419999999999999929e+00 3.489983364888471495e-01
7.440000000000000391e+00 3.475910915107985888e-01
7.459999999999999964e+00 3.461914701009312645e-01
7.480000000000000426e+00 3.447994278385380085e-01
7.500000000000000000e+00 3.434149067724208693e-01
7.520000000000000462e+00 3.420378636337485512e-01
7.540000000000000036e+00 3.406682411985156311e-01
7.560000000000000497e+00 3.393059973276577601e-01
7.580000000000000071e+00 3.379510755000410538e-01
7.600000000000000533e+00 3.366034346850206860e-01
7.620000000000000107e+00 3.352630190401417187e-01
7.640000000000000568e+00 3.339297886225803258e-01
7.660000000000000142e+00 3.326036882456022137e-01
7.679999999999999716e+00 3.312846790343181302e-01
7.700000000000000178e+00 3.299727064348038086e-01
7.719999999999999751e+00 3.286677326209197503e-01
7.740000000000000213e+00 3.273697036498446900e-01
7.759999999999999787e+00 3.260785827256756364e-01
7.780000000000000249e+00 3.247943164949738670e-01
7.799999999999999822e+00 3.235168691742070224e-01
7.820000000000000284e+00 3.222461879787711925e-01
7.839999999999999858e+00 3.209822381202709907e-01
7.860000000000000320e+00 3.197249673623114852e-01
7.879999999999999893e+00 3.184743418950161664e-01
