# Electrodo circular de radio 6 mm y espesor 710.0 um.
# Volumen de simulacion (convencion z,y,x):
# N: 1024 x 1024 x 1024 | voxelSize:  0.02mm x 0.02mm x 0.02mm | FOV:  20.48mm x 20.48mm x 20.48mm
# 
# z [mm]		 delta[ppm]
0.000000000000000000e+00 2.361460786645205534e+00
2.000000000000000042e-02 2.359094275920403216e+00
4.000000000000000083e-02 2.356655515988202776e+00
5.999999999999999778e-02 2.354144892635707809e+00
8.000000000000000167e-02 2.351562796167778302e+00
1.000000000000000056e-01 2.348909627817068912e+00
1.199999999999999956e-01 2.346185797132446904e+00
1.400000000000000133e-01 2.343391725284520000e+00
1.600000000000000033e-01 2.340527841382430640e+00
1.799999999999999933e-01 2.337594585972150085e+00
2.000000000000000111e-01 2.334592407138142089e+00
2.200000000000000011e-01 2.331521764189478763e+00
2.399999999999999911e-01 2.328383123568816160e+00
2.600000000000000089e-01 2.325176962717491413e+00
2.800000000000000266e-01 2.321903765797885821e+00
2.999999999999999889e-01 2.318564027733755584e+00
3.200000000000000067e-01 2.315158249749775354e+00
3.400000000000000244e-01 2.311686943584402076e+00
3.599999999999999867e-01 2.308150626849917231e+00
3.800000000000000044e-01 2.304549827415368402e+00
4.000000000000000222e-01 2.300885078590309440e+00
4.199999999999999845e-01 2.297156923675431006e+00
4.400000000000000022e-01 2.293365910973182320e+00
4.600000000000000200e-01 2.289512598503640195e+00
4.799999999999999822e-01 2.285597548845351046e+00
5.000000000000000000e-01 2.281621334013838709e+00
5.200000000000000178e-01 2.277584530136075092e+00
5.400000000000000355e-01 2.273487722488999108e+00
5.600000000000000533e-01 2.269331500011102065e+00
5.799999999999999600e-01 2.265116460498202144e+00
5.999999999999999778e-01 2.260843204955732322e+00
6.199999999999999956e-01 2.256512342948939764e+00
6.400000000000000133e-01 2.252124486799556902e+00
6.600000000000000311e-01 2.247680257087446787e+00
6.800000000000000488e-01 2.243180276695483144e+00
7.000000000000000666e-01 2.238625176459562827e+00
7.199999999999999734e-01 2.234015589065573071e+00
7.399999999999999911e-01 2.229352154844605138e+00
7.600000000000000089e-01 2.224635515525985152e+00
7.800000000000000266e-01 2.219866320174416874e+00
8.000000000000000444e-01 2.215045218803147531e+00
8.200000000000000622e-01 2.210172868449645112e+00
8.399999999999999689e-01 2.205249926653064296e+00
8.599999999999999867e-01 2.200277057664961955e+00
8.800000000000000044e-01 2.195254925795340650e+00
9.000000000000000222e-01 2.190184201754758586e+00
9.200000000000000400e-01 2.185065555873305421e+00
9.400000000000000577e-01 2.179899664570415396e+00
9.599999999999999645e-01 2.174687203451179052e+00
9.799999999999999822e-01 2.169428853900036813e+00
1.000000000000000000e+00 2.164125296058959425e+00
1.020000000000000018e+00 2.158777215541069605e+00
1.040000000000000036e+00 2.153385296295294626e+00
1.060000000000000053e+00 2.147950227435891257e+00
1.080000000000000071e+00 2.142472695998230758e+00
1.100000000000000089e+00 2.136953393880071328e+00
1.120000000000000107e+00 2.131393010493260132e+00
1.140000000000000124e+00 2.125792239812487328e+00
1.159999999999999920e+00 2.120151772927737710e+00
1.179999999999999938e+00 2.114472305196161361e+00
1.199999999999999956e+00 2.108754528700201192e+00
1.219999999999999973e+00 2.102999139498114456e+00
1.239999999999999991e+00 2.097206829992745991e+00
1.260000000000000009e+00 2.091378296276146020e+00
1.280000000000000027e+00 2.085514230414051706e+00
1.300000000000000044e+00 2.079615327879919207e+00
1.320000000000000062e+00 2.073682279760248992e+00
1.340000000000000080e+00 2.067715780273258641e+00
1.360000000000000098e+00 2.061716518900261086e+00
1.380000000000000115e+00 2.055685187984098050e+00
1.400000000000000133e+00 2.049622474791836790e+00
1.419999999999999929e+00 2.043529069187992597e+00
1.439999999999999947e+00 2.037405655633892643e+00
1.459999999999999964e+00 2.031252920930606276e+00
1.479999999999999982e+00 2.025071546160383651e+00
1.500000000000000000e+00 2.018862214494121954e+00
1.520000000000000018e+00 2.012625603080363756e+00
1.540000000000000036e+00 2.006362390912012295e+00
1.560000000000000053e+00 2.000073250668434000e+00
1.580000000000000071e+00 1.993758856636073773e+00
1.600000000000000089e+00 1.987419876509253891e+00
1.620000000000000107e+00 1.981056979359230974e+00
1.640000000000000124e+00 1.974670827399363615e+00
1.660000000000000142e+00 1.968262083997056378e+00
1.679999999999999938e+00 1.961831405409028894e+00
1.699999999999999956e+00 1.955379448830510292e+00
1.719999999999999973e+00 1.948906864106395576e+00
1.739999999999999991e+00 1.942414301811966171e+00
1.760000000000000009e+00 1.935902404945785138e+00
1.780000000000000027e+00 1.929371817036115155e+00
1.800000000000000044e+00 1.922823173821480935e+00
1.820000000000000062e+00 1.916257111376875599e+00
1.840000000000000080e+00 1.909674257787966623e+00
1.860000000000000098e+00 1.903075241291095621e+00
1.880000000000000115e+00 1.896460681947156557e+00
1.900000000000000133e+00 1.889831199789337335e+00
1.919999999999999929e+00 1.883187406502733863e+00
1.939999999999999947e+00 1.876529913573694586e+00
1.959999999999999964e+00 1.869859323981326815e+00
1.979999999999999982e+00 1.863176240342192758e+00
2.000000000000000000e+00 1.856481256619919362e+00
2.020000000000000018e+00 1.849774966258949105e+00
2.040000000000000036e+00 1.843057953918497915e+00
2.060000000000000053e+00 1.836330803588983374e+00
2.080000000000000071e+00 1.829594090356634339e+00
2.100000000000000089e+00 1.822848388496148386e+00
2.120000000000000107e+00 1.816094263272329812e+00
2.140000000000000124e+00 1.809332279002431987e+00
2.160000000000000142e+00 1.802562990901247275e+00
2.180000000000000160e+00 1.795786953106538464e+00
2.200000000000000178e+00 1.789004710574053414e+00
2.220000000000000195e+00 1.782216807059382901e+00
2.240000000000000213e+00 1.775423777069422782e+00
2.260000000000000231e+00 1.768626153793925182e+00
2.280000000000000249e+00 1.761824461119984919e+00
2.300000000000000266e+00 1.755019221506485039e+00
2.319999999999999840e+00 1.748210948068238180e+00
2.339999999999999858e+00 1.741400152386462397e+00
2.359999999999999876e+00 1.734587336669266122e+00
2.379999999999999893e+00 1.727773001491231808e+00
2.399999999999999911e+00 1.720957638036957782e+00
2.419999999999999929e+00 1.714141735762770402e+00
2.439999999999999947e+00 1.707325774730123813e+00
2.459999999999999964e+00 1.700510233182384257e+00
2.479999999999999982e+00 1.693695579974909604e+00
2.500000000000000000e+00 1.686882282059817273e+00
2.520000000000000018e+00 1.680070797019622475e+00
2.540000000000000036e+00 1.673261580452836794e+00
2.560000000000000053e+00 1.666455078618088281e+00
2.580000000000000071e+00 1.659651735713336684e+00
2.600000000000000089e+00 1.652851986637457360e+00
2.620000000000000107e+00 1.646056264155816073e+00
2.640000000000000124e+00 1.639264991786335557e+00
2.660000000000000142e+00 1.632478590844106181e+00
2.680000000000000160e+00 1.625697473459027265e+00
2.700000000000000178e+00 1.618922049492085291e+00
2.720000000000000195e+00 1.612152719691666292e+00
2.740000000000000213e+00 1.605389882474102414e+00
2.760000000000000231e+00 1.598633927225835194e+00
2.780000000000000249e+00 1.591885240940760227e+00
2.800000000000000266e+00 1.585144201675431797e+00
2.819999999999999840e+00 1.578411185035723863e+00
2.839999999999999858e+00 1.571686557792326688e+00
2.859999999999999876e+00 1.564970684209173735e+00
2.879999999999999893e+00 1.558263919826521571e+00
2.899999999999999911e+00 1.551566617623545197e+00
2.919999999999999929e+00 1.544879121976375558e+00
2.939999999999999947e+00 1.538201774647195430e+00
2.959999999999999964e+00 1.531534908924620408e+00
2.979999999999999982e+00 1.524878855431637925e+00
3.000000000000000000e+00 1.518233936455754218e+00
3.020000000000000018e+00 1.511600471568068871e+00
3.040000000000000036e+00 1.504978772150635580e+00
3.060000000000000053e+00 1.498369146818922637e+00
3.080000000000000071e+00 1.491771896153927246e+00
3.100000000000000089e+00 1.485187317920205308e+00
3.120000000000000107e+00 1.478615702010291910e+00
3.140000000000000124e+00 1.472057335450476012e+00
3.160000000000000142e+00 1.465512497565137906e+00
3.180000000000000160e+00 1.458981464762380220e+00
3.200000000000000178e+00 1.452464505925917138e+00
3.220000000000000195e+00 1.445961886972690236e+00
3.240000000000000213e+00 1.439473866479953346e+00
3.260000000000000231e+00 1.433000700006941797e+00
3.280000000000000249e+00 1.426542635964892058e+00
3.300000000000000266e+00 1.420099919694766788e+00
3.320000000000000284e+00 1.413672789587980594e+00
3.339999999999999858e+00 1.407261480912173512e+00
3.359999999999999876e+00 1.400866222190431998e+00
3.379999999999999893e+00 1.394487238767074144e+00
3.399999999999999911e+00 1.388124749453221840e+00
3.419999999999999929e+00 1.381778969824501546e+00
3.439999999999999947e+00 1.375450109140829325e+00
3.459999999999999964e+00 1.369138373367970063e+00
3.479999999999999982e+00 1.362843962379425511e+00
3.500000000000000000e+00 1.356567072693689369e+00
3.520000000000000018e+00 1.350307894966217503e+00
3.540000000000000036e+00 1.344066616434232309e+00
3.560000000000000053e+00 1.337843418706733400e+00
3.580000000000000071e+00 1.331638479908631156e+00
3.600000000000000089e+00 1.325451972776871212e+00
3.620000000000000107e+00 1.319284066495672203e+00
3.640000000000000124e+00 1.313134925106783202e+00
3.660000000000000142e+00 1.307004709027590694e+00
3.680000000000000160e+00 1.300893573783625357e+00
3.700000000000000178e+00 1.294801671201223359e+00
3.720000000000000195e+00 1.288729148470432628e+00
3.740000000000000213e+00 1.282676149003917798e+00
3.760000000000000231e+00 1.276642811838419878e+00
3.780000000000000249e+00 1.270629272151581945e+00
3.800000000000000266e+00 1.264635661010155898e+00
3.820000000000000284e+00 1.258662105536364928e+00
3.839999999999999858e+00 1.252708729011125177e+00
3.859999999999999876e+00 1.246775650681539283e+00
3.879999999999999893e+00 1.240862986227394993e+00
3.899999999999999911e+00 1.234970847201354083e+00
3.919999999999999929e+00 1.229099341867068818e+00
3.939999999999999947e+00 1.223248574263598121e+00
3.959999999999999964e+00 1.217418645423474999e+00
3.979999999999999982e+00 1.211609652052862751e+00
4.000000000000000000e+00 1.205821688137990622e+00
4.020000000000000462e+00 1.200054843232505331e+00
4.040000000000000036e+00 1.194309204460679341e+00
4.060000000000000497e+00 1.188584854403442082e+00
4.080000000000000071e+00 1.182881873506805404e+00
4.099999999999999645e+00 1.177200337558012011e+00
4.120000000000000107e+00 1.171540320507644450e+00
4.139999999999999680e+00 1.165901891527273859e+00
4.160000000000000142e+00 1.160285118253831849e+00
4.179999999999999716e+00 1.154690063420101387e+00
4.200000000000000178e+00 1.149116788529881861e+00
4.219999999999999751e+00 1.143565350052681007e+00
4.240000000000000213e+00 1.138035803538292923e+00
4.259999999999999787e+00 1.132528199366981791e+00
4.280000000000000249e+00 1.127042587312076849e+00
4.299999999999999822e+00 1.121579011836940865e+00
4.320000000000000284e+00 1.116137517114282884e+00
4.339999999999999858e+00 1.110718141861116948e+00
4.360000000000000320e+00 1.105320924823516959e+00
4.379999999999999893e+00 1.099945899140768457e+00
4.400000000000000355e+00 1.094593098304301515e+00
4.419999999999999929e+00 1.089262550042254141e+00
4.440000000000000391e+00 1.083954282761313115e+00
4.459999999999999964e+00 1.078668318942848758e+00
4.480000000000000426e+00 1.073404682076527505e+00
4.500000000000000000e+00 1.068163389559077636e+00
4.520000000000000462e+00 1.062944460128536051e+00
4.540000000000000036e+00 1.057747906256757853e+00
4.560000000000000497e+00 1.052573742093168452e+00
4.580000000000000071e+00 1.047421975342066380e+00
4.600000000000000533e+00 1.042292615724808913e+00
4.620000000000000107e+00 1.037185666332913980e+00
4.639999999999999680e+00 1.032101132617679662e+00
4.660000000000000142e+00 1.027039013210053531e+00
4.679999999999999716e+00 1.021999309446664173e+00
4.700000000000000178e+00 1.016982015647418081e+00
4.719999999999999751e+00 1.011987129187020829e+00
4.740000000000000213e+00 1.007014640221176593e+00
4.759999999999999787e+00 1.002064542312687045e+00
4.780000000000000249e+00 9.971368215971239124e-01
4.799999999999999822e+00 9.922314679726559339e-01
4.820000000000000284e+00 9.873484636960195848e-01
4.839999999999999858e+00 9.824877951452212210e-01
4.860000000000000320e+00 9.776494408366191990e-01
4.879999999999999893e+00 9.728333837697104025e-01
4.900000000000000355e+00 9.680395988560821507e-01
4.919999999999999929e+00 9.632680658555400344e-01
4.940000000000000391e+00 9.585187562076166179e-01
4.959999999999999964e+00 9.537916465683692335e-01
4.980000000000000426e+00 9.490867050351209366e-01
5.000000000000000000e+00 9.444039052932481360e-01
5.020000000000000462e+00 9.397432122247879605e-01
5.040000000000000036e+00 9.351045966746216465e-01
5.060000000000000497e+00 9.304880204335294058e-01
5.080000000000000071e+00 9.258934516331862596e-01
5.100000000000000533e+00 9.213208490942180751e-01
5.120000000000000107e+00 9.167701783595062492e-01
5.139999999999999680e+00 9.122413953977223100e-01
5.160000000000000142e+00 9.077344632844752681e-01
5.179999999999999716e+00 9.032493352517744212e-01
5.200000000000000178e+00 8.987859720266057062e-01
5.219999999999999751e+00 8.943443242167269380e-01
5.240000000000000213e+00 8.899243503162885816e-01
5.259999999999999787e+00 8.855259984183110333e-01
5.280000000000000249e+00 8.811492248970477226e-01
5.299999999999999822e+00 8.767939754374589612e-01
5.320000000000000284e+00 8.724602044040121740e-01
5.339999999999999858e+00 8.681478551774187702e-01
5.360000000000000320e+00 8.638568802196803231e-01
5.379999999999999893e+00 8.595872207082614347e-01
5.400000000000000355e+00 8.553388273072247694e-01
5.419999999999999929e+00 8.511116390889946759e-01
5.440000000000000391e+00 8.469056050214746056e-01
5.459999999999999964e+00 8.427206621675010778e-01
5.480000000000000426e+00 8.385567578978703196e-01
5.500000000000000000e+00 8.344138273585363086e-01
5.520000000000000462e+00 8.302918164195585149e-01
5.540000000000000036e+00 8.261906584000103804e-01
5.560000000000000497e+00 8.221102977629293207e-01
5.580000000000000071e+00 8.180506660878493763e-01
5.600000000000000533e+00 8.140117065218591685e-01
5.620000000000000107e+00 8.099933489896699035e-01
5.639999999999999680e+00 8.059955354109309411e-01
5.660000000000000142e+00 8.020181941376304247e-01
5.679999999999999716e+00 7.980612659479421334e-01
5.700000000000000178e+00 7.941246777006846225e-01
5.719999999999999751e+00 7.902083691160065593e-01
5.740000000000000213e+00 7.863122656366009489e-01
5.759999999999999787e+00 7.824363060055778973e-01
5.780000000000000249e+00 7.785804143240619979e-01
5.799999999999999822e+00 7.747445284366945017e-01
5.820000000000000284e+00 7.709285711751659997e-01
5.839999999999999858e+00 7.671324795618321701e-01
5.860000000000000320e+00 7.633561752286827096e-01
5.879999999999999893e+00 7.595995944496455321e-01
5.900000000000000355e+00 7.558626577244001998e-01
5.919999999999999929e+00 7.521453006500031790e-01
5.940000000000000391e+00 7.484474426589136087e-01
5.959999999999999964e+00 7.447690187406356133e-01
5.980000000000000426e+00 7.411099473232313217e-01
6.000000000000000000e+00 7.374701628557674971e-01
6.020000000000000462e+00 7.338495828225263251e-01
6.040000000000000036e+00 7.302481411970918046e-01
6.060000000000000497e+00 7.266657545784167560e-01
6.080000000000000071e+00 7.231023565274580234e-01
6.100000000000000533e+00 7.195578628141459099e-01
6.120000000000000107e+00 7.160322066476068059e-01
6.140000000000000568e+00 7.125253030230007667e-01
6.160000000000000142e+00 7.090370848563840589e-01
6.179999999999999716e+00 7.055674664203589463e-01
6.200000000000000178e+00 7.021163803947215731e-01
6.219999999999999751e+00 6.986837403797302448e-01
6.240000000000000213e+00 6.952694788737975307e-01
6.259999999999999787e+00 6.918735088531331456e-01
6.280000000000000249e+00 6.884957626877638015e-01
6.299999999999999822e+00 6.851361527762254156e-01
6.320000000000000284e+00 6.817946114113292433e-01
6.339999999999999858e+00 6.784710504584775537e-01
6.360000000000000320e+00 6.751654021826422047e-01
6.379999999999999893e+00 6.718775779588223029e-01
6.400000000000000355e+00 6.686075100717893127e-01
6.419999999999999929e+00 6.653551094470980809e-01
6.440000000000000391e+00 6.621203084352654811e-01
6.459999999999999964e+00 6.589030175516535914e-01
6.480000000000000426e+00 6.557031692568093817e-01
6.500000000000000000e+00 6.525206736934752172e-01
6.520000000000000462e+00 6.493554634749114651e-01
6.540000000000000036e+00 6.462074484071764768e-01
6.560000000000000497e+00 6.430765612973586842e-01
6.580000000000000071e+00 6.399627116491882761e-01
6.600000000000000533e+00 6.368658325031808509e-01
6.620000000000000107e+00 6.337858330935345341e-01
6.640000000000000568e+00 6.307226467323068242e-01
6.660000000000000142e+00 6.276761824154696301e-01
6.679999999999999716e+00 6.246463737632952373e-01
6.700000000000000178e+00 6.216331295633606979e-01
6.719999999999999751e+00 6.186363837794374154e-01
6.740000000000000213e+00 6.156560450191175260e-01
6.759999999999999787e+00 6.126920476235985236e-01
6.780000000000000249e+00 6.097443000475121222e-01
6.799999999999999822e+00 6.068127370420919320e-01
6.820000000000000284e+00 6.038972669346861499e-01
6.839999999999999858e+00 6.009978249179009913e-01
6.860000000000000320e+00 5.981143192161739730e-01
6.879999999999999893e+00 5.952466854935806184e-01
6.900000000000000355e+00 5.923948318947499514e-01
6.919999999999999929e+00 5.895586945841260196e-01
6.940000000000000391e+00 5.867381816484026347e-01
6.959999999999999964e+00 5.839332297801187455e-01
6.980000000000000426e+00 5.811437470287105223e-01
7.000000000000000000e+00 5.783696706414286348e-01
7.020000000000000462e+00 5.756109086499594518e-01
7.040000000000000036e+00 5.728673988817883922e-01
7.060000000000000497e+00 5.701390493692403139e-01
7.080000000000000071e+00 5.674257985444962626e-01
7.100000000000000533e+00 5.647275544578215234e-01
7.120000000000000107e+00 5.620442561695394579e-01
7.140000000000000568e+00 5.593758117640910132e-01
7.160000000000000142e+00 5.567221609524056758e-01
7.179999999999999716e+00 5.540832118683129970e-01
7.200000000000000178e+00 5.514589048948510541e-01
7.219999999999999751e+00 5.488491482294651780e-01
7.240000000000000213e+00 5.462538829478851277e-01
7.259999999999999787e+00 5.436730173244316289e-01
7.280000000000000249e+00 5.411064931472207018e-01
7.299999999999999822e+00 5.385542187797736080e-01
7.320000000000000284e+00 5.360161367414294498e-01
7.339999999999999858e+00 5.334921554963457657e-01
7.360000000000000320e+00 5.309822183130886719e-01
7.379999999999999893e+00 5.284862337670085397e-01
7.400000000000000355e+00 5.260041458930991842e-01
7.419999999999999929e+00 5.235358633876211476e-01
7.440000000000000391e+00 5.210813310684377919e-01
7.459999999999999964e+00 5.186404577616116063e-01
7.480000000000000426e+00 5.162131890835661707e-01
7.500000000000000000e+00 5.137994339982813186e-01
7.520000000000000462e+00 5.113991389357094297e-01
7.540000000000000036e+00 5.090122130051091265e-01
7.560000000000000497e+00 5.066386034642446079e-01
7.580000000000000071e+00 5.042782195742571139e-01
7.600000000000000533e+00 5.019310094343404360e-01
7.620000000000000107e+00 4.995968824634378080e-01
7.640000000000000568e+00 4.972757876151548406e-01
7.660000000000000142e+00 4.949676344714425968e-01
7.679999999999999716e+00 4.926723728526857804e-01
7.700000000000000178e+00 4.903899125084087984e-01
7.719999999999999751e+00 4.881202041375408140e-01
7.740000000000000213e+00 4.858631576611016634e-01
7.759999999999999787e+00 4.836187246677721707e-01
7.780000000000000249e+00 4.813868152533706812e-01
7.799999999999999822e+00 4.791673819069869888e-01
7.820000000000000284e+00 4.769603349019465033e-01
7.839999999999999858e+00 4.747656276378799389e-01
7.860000000000000320e+00 4.725831705677630556e-01
7.879999999999999893e+00 4.704129180113954534e-01
