# Electrodo circular de radio 6 mm y espesor 710.0 um.
# Volumen de simulacion (convencion z,y,x):
# N: 1024 x 1024 x 1024 | voxelSize:  0.02mm x 0.02mm x 0.02mm | FOV:  20.48mm x 20.48mm x 20.48mm
# 
# z [mm]		 delta[ppm]
0.000000000000000000e+00 3.269637007308648702e+00
2.000000000000000042e-02 3.258856164848532799e+00
4.000000000000000083e-02 3.247806604549319243e+00
5.999999999999999778e-02 3.236494972652075308e+00
8.000000000000000167e-02 3.224928024909497370e+00
1.000000000000000056e-01 3.213112587976600931e+00
1.199999999999999956e-01 3.201055560911614251e+00
1.400000000000000133e-01 3.188763902685789908e+00
1.600000000000000033e-01 3.176244620810649621e+00
1.799999999999999933e-01 3.163504767494720316e+00
2.000000000000000111e-01 3.150551424335719108e+00
2.200000000000000011e-01 3.137391701354729001e+00
2.399999999999999911e-01 3.124032720463352231e+00
2.600000000000000089e-01 3.110481616001603555e+00
2.800000000000000266e-01 3.096745517517818236e+00
2.999999999999999889e-01 3.082831551537752901e+00
3.200000000000000067e-01 3.068746823958154568e+00
3.400000000000000244e-01 3.054498422927967027e+00
3.599999999999999867e-01 3.040093401017505137e+00
3.800000000000000044e-01 3.025538779167999071e+00
4.000000000000000222e-01 3.010841528745157980e+00
4.199999999999999845e-01 2.996008576536382861e+00
4.400000000000000022e-01 2.981046786769952384e+00
4.600000000000000200e-01 2.965962967151236640e+00
4.799999999999999822e-01 2.950763850899976060e+00
5.000000000000000000e-01 2.935456103819568341e+00
5.200000000000000178e-01 2.920046306397001690e+00
5.400000000000000355e-01 2.904540961898180562e+00
5.600000000000000533e-01 2.888946478555168618e+00
5.799999999999999600e-01 2.873269178677719360e+00
5.999999999999999778e-01 2.857515280949286751e+00
6.199999999999999956e-01 2.841690910540552117e+00
6.400000000000000133e-01 2.825802081520656817e+00
6.600000000000000311e-01 2.809854707954304587e+00
6.800000000000000488e-01 2.793854586433105247e+00
7.000000000000000666e-01 2.777807408133093681e+00
7.199999999999999734e-01 2.761718741459473492e+00
7.399999999999999911e-01 2.745594045037471620e+00
7.600000000000000089e-01 2.729438650463103855e+00
7.800000000000000266e-01 2.713257776196194460e+00
8.000000000000000444e-01 2.697056510401103946e+00
8.200000000000000622e-01 2.680839825707618029e+00
8.399999999999999689e-01 2.664612562125733497e+00
8.599999999999999867e-01 2.648379442637223136e+00
8.800000000000000044e-01 2.632145056162214392e+00
9.000000000000000222e-01 2.615913873942196322e+00
9.200000000000000400e-01 2.599690232537182233e+00
9.400000000000000577e-01 2.583478350959176773e+00
9.599999999999999645e-01 2.567282313674364325e+00
9.799999999999999822e-01 2.551106088445151077e+00
1.000000000000000000e+00 2.534953509313642606e+00
1.020000000000000018e+00 2.518828295109724724e+00
1.040000000000000036e+00 2.502734032389402508e+00
1.060000000000000053e+00 2.486674194566511620e+00
1.080000000000000071e+00 2.470652124781912651e+00
1.100000000000000089e+00 2.454671055616700848e+00
1.120000000000000107e+00 2.438734091866953779e+00
1.140000000000000124e+00 2.422844230797130294e+00
1.159999999999999920e+00 2.407004344797989859e+00
1.179999999999999938e+00 2.391217202139936493e+00
1.199999999999999956e+00 2.375485449491337775e+00
1.219999999999999973e+00 2.359811633132995023e+00
1.239999999999999991e+00 2.344198181317322049e+00
1.260000000000000009e+00 2.328647425906626101e+00
1.280000000000000027e+00 2.313161584553946604e+00
1.300000000000000044e+00 2.297742782729621513e+00
1.320000000000000062e+00 2.282393035707903639e+00
1.340000000000000080e+00 2.267114270948104693e+00
1.360000000000000098e+00 2.251908309871848868e+00
1.380000000000000115e+00 2.236776890567063969e+00
1.400000000000000133e+00 2.221721649344025717e+00
1.419999999999999929e+00 2.206744143732346064e+00
1.439999999999999947e+00 2.191845833804975108e+00
1.459999999999999964e+00 2.177028105440316441e+00
1.479999999999999982e+00 2.162292251406467969e+00
1.500000000000000000e+00 2.147639494862490395e+00
1.520000000000000018e+00 2.133070970196213167e+00
1.540000000000000036e+00 2.118587746740562050e+00
1.560000000000000053e+00 2.104190809361156766e+00
1.580000000000000071e+00 2.089881082365335541e+00
1.600000000000000089e+00 2.075659409836800862e+00
1.620000000000000107e+00 2.061526579716695284e+00
1.640000000000000124e+00 2.047483303885097694e+00
1.660000000000000142e+00 2.033530242395122922e+00
1.679999999999999938e+00 2.019667983301939085e+00
1.699999999999999956e+00 2.005897067032328618e+00
1.719999999999999973e+00 1.992217965964220738e+00
1.739999999999999991e+00 1.978631108915470005e+00
1.760000000000000009e+00 1.965136860477617375e+00
1.780000000000000027e+00 1.951735545608914491e+00
1.800000000000000044e+00 1.938427428727963919e+00
1.820000000000000062e+00 1.925212738397150902e+00
1.840000000000000080e+00 1.912091646182372040e+00
1.860000000000000098e+00 1.899064291414029881e+00
1.880000000000000115e+00 1.886130759820713543e+00
1.900000000000000133e+00 1.873291108355834567e+00
1.919999999999999929e+00 1.860545343613464242e+00
1.939999999999999947e+00 1.847893446709506726e+00
1.959999999999999964e+00 1.835335351489285394e+00
1.979999999999999982e+00 1.822870969452804468e+00
2.000000000000000000e+00 1.810500167763900548e+00
2.020000000000000018e+00 1.798222794209787700e+00
2.040000000000000036e+00 1.786038655022673227e+00
2.060000000000000053e+00 1.773947539864292100e+00
2.080000000000000071e+00 1.761949199470973504e+00
2.100000000000000089e+00 1.750043370654308372e+00
2.120000000000000107e+00 1.738229753781561637e+00
2.140000000000000124e+00 1.726508037783976990e+00
2.160000000000000142e+00 1.714877877484363822e+00
2.180000000000000160e+00 1.703338918604860197e+00
2.200000000000000178e+00 1.691890774954255106e+00
2.220000000000000195e+00 1.680533053427250012e+00
2.240000000000000213e+00 1.669265331063936486e+00
2.260000000000000231e+00 1.658087180032804531e+00
2.280000000000000249e+00 1.646998144575338552e+00
2.300000000000000266e+00 1.635997765965176765e+00
2.319999999999999840e+00 1.625085559350561537e+00
2.339999999999999858e+00 1.614261038682155425e+00
2.359999999999999876e+00 1.603523693466552658e+00
2.379999999999999893e+00 1.592873013655304426e+00
2.399999999999999911e+00 1.582308466322396523e+00
2.419999999999999929e+00 1.571829520507108002e+00
2.439999999999999947e+00 1.561435623828713481e+00
2.459999999999999964e+00 1.551126227275789082e+00
2.479999999999999982e+00 1.540900761771084371e+00
2.500000000000000000e+00 1.530758662899881051e+00
2.520000000000000018e+00 1.520699347438249083e+00
2.540000000000000036e+00 1.510722238013062046e+00
2.560000000000000053e+00 1.500826739606474725e+00
2.580000000000000071e+00 1.491012264140156196e+00
2.600000000000000089e+00 1.481278206969056654e+00
2.620000000000000107e+00 1.471623971382375995e+00
2.640000000000000124e+00 1.462048945099305275e+00
2.660000000000000142e+00 1.452552524679182389e+00
2.680000000000000160e+00 1.443134092032086091e+00
2.700000000000000178e+00 1.433793038730557079e+00
2.720000000000000195e+00 1.424528742547533255e+00
2.740000000000000213e+00 1.415340591661958802e+00
2.760000000000000231e+00 1.406227961236687918e+00
2.780000000000000249e+00 1.397190237510232302e+00
2.800000000000000266e+00 1.388226794426873578e+00
2.819999999999999840e+00 1.379337017606733884e+00
2.839999999999999858e+00 1.370520281040454424e+00
2.859999999999999876e+00 1.361775970929699042e+00
2.879999999999999893e+00 1.353103462458372430e+00
2.899999999999999911e+00 1.344502143495613922e+00
2.919999999999999929e+00 1.335971391455627266e+00
2.939999999999999947e+00 1.327510596855123293e+00
2.959999999999999964e+00 1.319119140273476543e+00
2.979999999999999982e+00 1.310796415756541933e+00
3.000000000000000000e+00 1.302541807888909720e+00
3.020000000000000018e+00 1.294354715035965553e+00
3.040000000000000036e+00 1.286234526539653089e+00
3.060000000000000053e+00 1.278180645790587988e+00
3.080000000000000071e+00 1.270192467558831417e+00
3.100000000000000089e+00 1.262269400887794824e+00
3.120000000000000107e+00 1.254410846571180960e+00
3.140000000000000124e+00 1.246616219860392505e+00
3.160000000000000142e+00 1.238884928098842320e+00
3.180000000000000160e+00 1.231216393234549900e+00
3.200000000000000178e+00 1.223610029622668405e+00
3.220000000000000195e+00 1.216065266334936279e+00
3.240000000000000213e+00 1.208581525141338986e+00
3.260000000000000231e+00 1.201158242608009630e+00
3.280000000000000249e+00 1.193794848268660669e+00
3.300000000000000266e+00 1.186490786502514494e+00
3.320000000000000284e+00 1.179245494906135283e+00
3.339999999999999858e+00 1.172058425942994475e+00
3.359999999999999876e+00 1.164929025526044715e+00
3.379999999999999893e+00 1.157856754430458102e+00
3.399999999999999911e+00 1.150841067097366111e+00
3.419999999999999929e+00 1.143881432801302056e+00
3.439999999999999947e+00 1.136977314685206686e+00
3.459999999999999964e+00 1.130128190674148270e+00
3.479999999999999982e+00 1.123333532751709773e+00
3.500000000000000000e+00 1.116592827611549543e+00
3.520000000000000018e+00 1.109905556185035946e+00
3.540000000000000036e+00 1.103271214022195190e+00
3.560000000000000053e+00 1.096689291080512829e+00
3.580000000000000071e+00 1.090159291826821475e+00
3.600000000000000089e+00 1.083680715296903019e+00
3.620000000000000107e+00 1.077253074909911401e+00
3.640000000000000124e+00 1.070875878808440929e+00
3.660000000000000142e+00 1.064548649377089706e+00
3.680000000000000160e+00 1.058270903872399860e+00
3.700000000000000178e+00 1.052042173637177003e+00
3.720000000000000195e+00 1.045861985029776564e+00
3.740000000000000213e+00 1.039729878325826196e+00
3.760000000000000231e+00 1.033645388956045075e+00
3.780000000000000249e+00 1.027608066087044580e+00
3.800000000000000266e+00 1.021617454176935169e+00
3.820000000000000284e+00 1.015673111226913727e+00
3.839999999999999858e+00 1.009774590663655491e+00
3.859999999999999876e+00 1.003921459253421355e+00
3.879999999999999893e+00 9.981132793202813769e-01
3.899999999999999911e+00 9.923496263145231699e-01
3.919999999999999929e+00 9.866300713755121743e-01
3.939999999999999947e+00 9.809541985462113534e-01
3.959999999999999964e+00 9.753215876895366954e-01
3.979999999999999982e+00 9.697318313408267443e-01
4.000000000000000000e+00 9.641845179863367532e-01
4.020000000000000462e+00 9.586792485455496449e-01
4.040000000000000036e+00 9.532156200204540131e-01
4.060000000000000497e+00 9.477932415996588311e-01
4.080000000000000071e+00 9.424117186868983254e-01
4.099999999999999645e+00 9.370706686189301804e-01
4.120000000000000107e+00 9.317697050817611570e-01
4.139999999999999680e+00 9.265084534343371869e-01
4.160000000000000142e+00 9.212865355208009754e-01
4.179999999999999716e+00 9.161035845920455500e-01
4.200000000000000178e+00 9.109592305222982134e-01
4.219999999999999751e+00 9.058531143206812741e-01
4.240000000000000213e+00 9.007848737602436318e-01
4.259999999999999787e+00 8.957541574716978428e-01
4.280000000000000249e+00 8.907606109930578109e-01
4.299999999999999822e+00 8.858038904377598666e-01
4.320000000000000284e+00 8.808836489728957275e-01
4.339999999999999858e+00 8.759995500539764501e-01
4.360000000000000320e+00 8.711512543397643693e-01
4.379999999999999893e+00 8.663384324860157193e-01
4.400000000000000355e+00 8.615607525047087600e-01
4.419999999999999929e+00 8.568178921091410549e-01
4.440000000000000391e+00 8.521095265254239326e-01
4.459999999999999964e+00 8.474353403813402741e-01
4.480000000000000426e+00 8.427950159778077044e-01
4.500000000000000000e+00 8.381882447139407111e-01
4.520000000000000462e+00 8.336147158262077195e-01
4.540000000000000036e+00 8.290741273422348456e-01
4.560000000000000497e+00 8.245661752951893853e-01
4.580000000000000071e+00 8.200905641988873729e-01
4.600000000000000533e+00 8.156469967450099556e-01
4.620000000000000107e+00 8.112351837921096820e-01
4.639999999999999680e+00 8.068548345531029176e-01
4.660000000000000142e+00 8.025056660908342909e-01
4.679999999999999716e+00 7.981873940032963022e-01
4.700000000000000178e+00 7.938997414184710832e-01
4.719999999999999751e+00 7.896424301845945681e-01
4.740000000000000213e+00 7.854151893570096021e-01
4.759999999999999787e+00 7.812177469008446673e-01
4.780000000000000249e+00 7.770498376626606696e-01
4.799999999999999822e+00 7.729111955927530087e-01
4.820000000000000284e+00 7.688015611944409855e-01
4.839999999999999858e+00 7.647206742732254314e-01
4.860000000000000320e+00 7.606682808566030962e-01
4.879999999999999893e+00 7.566441264771918140e-01
4.900000000000000355e+00 7.526479625559828746e-01
4.919999999999999929e+00 7.486795402265887800e-01
4.940000000000000391e+00 7.447386161748885680e-01
4.959999999999999964e+00 7.408249470114177671e-01
4.980000000000000426e+00 7.369382945603872859e-01
5.000000000000000000e+00 7.330784207872926839e-01
5.020000000000000462e+00 7.292450925303454179e-01
5.040000000000000036e+00 7.254380769902076809e-01
5.060000000000000497e+00 7.216571458969157637e-01
5.080000000000000071e+00 7.179020715687295384e-01
5.100000000000000533e+00 7.141726305076308012e-01
5.120000000000000107e+00 7.104686000341545737e-01
5.139999999999999680e+00 7.067897613045862615e-01
5.160000000000000142e+00 7.031358965286906848e-01
5.179999999999999716e+00 6.995067914017645272e-01
5.200000000000000178e+00 6.959022329120515549e-01
5.219999999999999751e+00 6.923220111808339183e-01
5.240000000000000213e+00 6.887659178663949611e-01
5.259999999999999787e+00 6.852337474053465938e-01
5.280000000000000249e+00 6.817252960198736389e-01
5.299999999999999822e+00 6.782403623535404602e-01
5.320000000000000284e+00 6.747787470886084105e-01
5.339999999999999858e+00 6.713402529695842169e-01
5.360000000000000320e+00 6.679246850372845268e-01
5.379999999999999893e+00 6.645318500333965428e-01
5.400000000000000355e+00 6.611615572580686884e-01
5.419999999999999929e+00 6.578136173487552085e-01
5.440000000000000391e+00 6.544878437679829686e-01
5.459999999999999964e+00 6.511840509497827112e-01
5.480000000000000426e+00 6.479020564243669345e-01
5.500000000000000000e+00 6.446416783254589333e-01
5.520000000000000462e+00 6.414027381584946896e-01
5.540000000000000036e+00 6.381850576621810323e-01
5.560000000000000497e+00 6.349884622269308387e-01
5.580000000000000071e+00 6.318127771039767637e-01
5.600000000000000533e+00 6.286578314806423595e-01
5.620000000000000107e+00 6.255234540303439283e-01
5.639999999999999680e+00 6.224094776514076388e-01
5.660000000000000142e+00 6.193157343512875057e-01
5.679999999999999716e+00 6.162420606555172320e-01
5.700000000000000178e+00 6.131882918194893062e-01
5.719999999999999751e+00 6.101542679142472059e-01
5.740000000000000213e+00 6.071398273591512851e-01
5.759999999999999787e+00 6.041448136911050648e-01
5.780000000000000249e+00 6.011690684114390226e-01
5.799999999999999822e+00 5.982124384452880417e-01
5.820000000000000284e+00 5.952747682960175535e-01
5.839999999999999858e+00 5.923559082013442056e-01
5.860000000000000320e+00 5.894557055886183727e-01
5.879999999999999893e+00 5.865740139344430837e-01
5.900000000000000355e+00 5.837106835140919436e-01
5.919999999999999929e+00 5.808655709712581272e-01
5.940000000000000391e+00 5.780385293548904180e-01
5.959999999999999964e+00 5.752294184058514004e-01
5.980000000000000426e+00 5.724380938744190184e-01
6.000000000000000000e+00 5.696644185305318464e-01
6.020000000000000462e+00 5.669082507551936878e-01
6.040000000000000036e+00 5.641694562811166991e-01
6.060000000000000497e+00 5.614478960512430117e-01
6.080000000000000071e+00 5.587434386965165478e-01
6.100000000000000533e+00 5.560559476546912405e-01
6.120000000000000107e+00 5.533852943921088174e-01
6.140000000000000568e+00 5.507313447759530911e-01
6.160000000000000142e+00 5.480939730468101789e-01
6.179999999999999716e+00 5.454730474374844817e-01
6.200000000000000178e+00 5.428684449032978865e-01
6.219999999999999751e+00 5.402800359805267627e-01
6.240000000000000213e+00 5.377077002813147599e-01
6.259999999999999787e+00 5.351513105847719443e-01
6.280000000000000249e+00 5.326107491035140251e-01
6.299999999999999822e+00 5.300858908004224546e-01
6.320000000000000284e+00 5.275766204337664078e-01
6.339999999999999858e+00 5.250828150925617166e-01
6.360000000000000320e+00 5.226043620273981283e-01
6.379999999999999893e+00 5.201411403972980851e-01
6.400000000000000355e+00 5.176930398932991784e-01
6.419999999999999929e+00 5.152599416896469497e-01
6.440000000000000391e+00 5.128417378673671978e-01
6.459999999999999964e+00 5.104383115625847900e-01
6.480000000000000426e+00 5.080495571972452051e-01
6.500000000000000000e+00 5.056753598172757380e-01
6.520000000000000462e+00 5.033156161378166127e-01
6.540000000000000036e+00 5.009702130638896689e-01
6.560000000000000497e+00 4.986390495574241633e-01
6.580000000000000071e+00 4.963220143330269174e-01
6.600000000000000533e+00 4.940190085542965903e-01
6.620000000000000107e+00 4.917299226972123849e-01
6.640000000000000568e+00 4.894546600831718441e-01
6.660000000000000142e+00 4.871931129024411611e-01
6.679999999999999716e+00 4.849451865915621052e-01
6.700000000000000178e+00 4.827107750092430316e-01
6.719999999999999751e+00 4.804897856657057709e-01
6.740000000000000213e+00 4.782821140433148321e-01
6.759999999999999787e+00 4.760876696856629064e-01
6.780000000000000249e+00 4.739063496551530474e-01
6.799999999999999822e+00 4.717380654895750869e-01
6.820000000000000284e+00 4.695827157887469960e-01
6.839999999999999858e+00 4.674402140465819255e-01
6.860000000000000320e+00 4.653104603587987498e-01
6.879999999999999893e+00 4.631933701384237101e-01
6.900000000000000355e+00 4.610888449365123098e-01
6.919999999999999929e+00 4.589968020492387057e-01
6.940000000000000391e+00 4.569171444434695362e-01
6.959999999999999964e+00 4.548497912635788287e-01
6.980000000000000426e+00 4.527946468536030444e-01
7.000000000000000000e+00 4.507516321721641295e-01
7.020000000000000462e+00 4.487206529028168189e-01
7.040000000000000036e+00 4.467016317854377583e-01
7.060000000000000497e+00 4.446944758062806313e-01
7.080000000000000071e+00 4.426991094544222571e-01
7.100000000000000533e+00 4.407154409829320274e-01
7.120000000000000107e+00 4.387433965989543383e-01
7.140000000000000568e+00 4.367828857872628756e-01
7.160000000000000142e+00 4.348338364428264158e-01
7.179999999999999716e+00 4.328961592479035891e-01
7.200000000000000178e+00 4.309697837559123834e-01
7.219999999999999751e+00 4.290546218130962819e-01
7.240000000000000213e+00 4.271506046028004655e-01
7.259999999999999787e+00 4.252576451025980031e-01
7.280000000000000249e+00 4.233756760980557643e-01
7.299999999999999822e+00 4.215046116660913778e-01
7.320000000000000284e+00 4.196443861675979714e-01
7.339999999999999858e+00 4.177949147476571201e-01
7.360000000000000320e+00 4.159561333163772634e-01
7.379999999999999893e+00 4.141279580564392604e-01
7.400000000000000355e+00 4.123103264018206371e-01
7.419999999999999929e+00 4.105031555429982104e-01
7.440000000000000391e+00 4.087063844132149959e-01
7.459999999999999964e+00 4.069199311815209219e-01
7.480000000000000426e+00 4.051437362565489808e-01
7.500000000000000000e+00 4.033777187574161260e-01
7.520000000000000462e+00 4.016218205449742507e-01
7.540000000000000036e+00 3.998759616604443123e-01
7.560000000000000497e+00 3.981400853944230822e-01
7.580000000000000071e+00 3.964141126829375250e-01
7.600000000000000533e+00 3.946979882245221782e-01
7.620000000000000107e+00 3.929916338232249950e-01
7.640000000000000568e+00 3.912949955643756361e-01
7.660000000000000142e+00 3.896079960938919062e-01
7.679999999999999716e+00 3.879305828633910491e-01
7.700000000000000178e+00 3.862626793349682175e-01
7.719999999999999751e+00 3.846042343066516378e-01
7.740000000000000213e+00 3.829551720316325403e-01
7.759999999999999787e+00 3.813154426350843784e-01
7.780000000000000249e+00 3.796849711366333535e-01
7.799999999999999822e+00 3.780637089699236397e-01
7.820000000000000284e+00 3.764515818969382255e-01
7.839999999999999858e+00 3.748485426417024757e-01
7.860000000000000320e+00 3.732545176848560686e-01
7.879999999999999893e+00 3.716694610232893492e-01
