# Electrodo circular de radio 6 mm y espesor 710.0 um.
# Volumen de simulacion (convencion z,y,x):
# N: 1024 x 1024 x 1024 | voxelSize:  0.02mm x 0.02mm x 0.02mm | FOV:  20.48mm x 20.48mm x 20.48mm
# 
# z [mm]		 delta[ppm]
0.000000000000000000e+00 2.984402363773430267e+00
2.000000000000000042e-02 2.977202128340324716e+00
4.000000000000000083e-02 2.969807971916282430e+00
5.999999999999999778e-02 2.962223219587987622e+00
8.000000000000000167e-02 2.954451251762023389e+00
1.000000000000000056e-01 2.946495518201288633e+00
1.199999999999999956e-01 2.938359517512660446e+00
1.400000000000000133e-01 2.930046801396936296e+00
1.600000000000000033e-01 2.921560961644463550e+00
1.799999999999999933e-01 2.912905635862085951e+00
2.000000000000000111e-01 2.904084494371202751e+00
2.200000000000000011e-01 2.895101246023979336e+00
2.399999999999999911e-01 2.885959625435972065e+00
2.600000000000000089e-01 2.876663398781066583e+00
2.800000000000000266e-01 2.867216350985159590e+00
2.999999999999999889e-01 2.857622291727406338e+00
3.200000000000000067e-01 2.847885042549283874e+00
3.400000000000000244e-01 2.838008443159894423e+00
3.599999999999999867e-01 2.827996338373901519e+00
3.800000000000000044e-01 2.817852584794802162e+00
4.000000000000000222e-01 2.807581037586461825e+00
4.199999999999999845e-01 2.797185557573880210e+00
4.400000000000000022e-01 2.786669997826986211e+00
4.600000000000000200e-01 2.776038211210777096e+00
4.799999999999999822e-01 2.765294036795559407e+00
5.000000000000000000e-01 2.754441307875864720e+00
5.200000000000000178e-01 2.743483838203890635e+00
5.400000000000000355e-01 2.732425430492934737e+00
5.600000000000000533e-01 2.721269862488385538e+00
5.799999999999999600e-01 2.710020895965079113e+00
5.999999999999999778e-01 2.698682262637827289e+00
6.199999999999999956e-01 2.687257673659595003e+00
6.400000000000000133e-01 2.675750805383590336e+00
6.600000000000000311e-01 2.664165309365050138e+00
6.800000000000000488e-01 2.652504797977780715e+00
7.000000000000000666e-01 2.640772854920270252e+00
7.199999999999999734e-01 2.628973020695807961e+00
7.399999999999999911e-01 2.617108803620701085e+00
7.600000000000000089e-01 2.605183665170005991e+00
7.800000000000000266e-01 2.593201031483891139e+00
8.000000000000000444e-01 2.581164278585239558e+00
8.200000000000000622e-01 2.569076744377849053e+00
8.399999999999999689e-01 2.556941713736651689e+00
8.599999999999999867e-01 2.544762430990004543e+00
8.800000000000000044e-01 2.532542084886254763e+00
9.000000000000000222e-01 2.520283821550559633e+00
9.200000000000000400e-01 2.507990729327201240e+00
9.400000000000000577e-01 2.495665852200180002e+00
9.599999999999999645e-01 2.483312174512986470e+00
9.799999999999999822e-01 2.470932634840839803e+00
1.000000000000000000e+00 2.458530110586225170e+00
1.020000000000000018e+00 2.446107432289706729e+00
1.040000000000000036e+00 2.433667368101446016e+00
1.060000000000000053e+00 2.421212638516563764e+00
1.080000000000000071e+00 2.408745900720173694e+00
1.100000000000000089e+00 2.396269763732571167e+00
1.120000000000000107e+00 2.383786772627065176e+00
1.140000000000000124e+00 2.371299424069594153e+00
1.159999999999999920e+00 2.358810150406556172e+00
1.179999999999999938e+00 2.346321335583059664e+00
1.199999999999999956e+00 2.333835299099562555e+00
1.219999999999999973e+00 2.321354312292540190e+00
1.239999999999999991e+00 2.308880582157167627e+00
1.260000000000000009e+00 2.296416267974038306e+00
1.280000000000000027e+00 2.283963464996650483e+00
1.300000000000000044e+00 2.271524221407610789e+00
1.320000000000000062e+00 2.259100521868543598e+00
1.340000000000000080e+00 2.246694304789219832e+00
1.360000000000000098e+00 2.234307445738983766e+00
1.380000000000000115e+00 2.221941775012260312e+00
1.400000000000000133e+00 2.209599060899758438e+00
1.419999999999999929e+00 2.197281027533964703e+00
1.439999999999999947e+00 2.184989338019819982e+00
1.459999999999999964e+00 2.172725612543942919e+00
1.479999999999999982e+00 2.160491411363915315e+00
1.500000000000000000e+00 2.148288253165250961e+00
1.520000000000000018e+00 2.136117597909789723e+00
1.540000000000000036e+00 2.123980865424660802e+00
1.560000000000000053e+00 2.111879418109924966e+00
1.580000000000000071e+00 2.099814579744131660e+00
1.600000000000000089e+00 2.087787618052648231e+00
1.620000000000000107e+00 2.075799763714725188e+00
1.640000000000000124e+00 2.063852192793693252e+00
1.660000000000000142e+00 2.051946045930866713e+00
1.679999999999999938e+00 2.040082410640035260e+00
1.699999999999999956e+00 2.028262340673834263e+00
1.719999999999999973e+00 2.016486838184853969e+00
1.739999999999999991e+00 2.004756873250520766e+00
1.760000000000000009e+00 1.993073365904273198e+00
1.780000000000000027e+00 1.981437205805351764e+00
1.800000000000000044e+00 1.969849234143437267e+00
1.820000000000000062e+00 1.958310263440146803e+00
1.840000000000000080e+00 1.946821059331591330e+00
1.860000000000000098e+00 1.935382360488709930e+00
1.880000000000000115e+00 1.923994860282173258e+00
1.900000000000000133e+00 1.912659226809084734e+00
1.919999999999999929e+00 1.901376084445601800e+00
1.939999999999999947e+00 1.890146033967883721e+00
1.959999999999999964e+00 1.878969633997783939e+00
1.979999999999999982e+00 1.867847421206238812e+00
2.000000000000000000e+00 1.856779891658290493e+00
2.020000000000000018e+00 1.845767521087429586e+00
2.040000000000000036e+00 1.834810746146156690e+00
2.060000000000000053e+00 1.823909984740102130e+00
2.080000000000000071e+00 1.813065617191130574e+00
2.100000000000000089e+00 1.802278006620337880e+00
2.120000000000000107e+00 1.791547480030675210e+00
2.140000000000000124e+00 1.780874348728179291e+00
2.160000000000000142e+00 1.770258889331790986e+00
2.180000000000000160e+00 1.759701364222415298e+00
2.200000000000000178e+00 1.749202002487569629e+00
2.220000000000000195e+00 1.738761020388091882e+00
2.240000000000000213e+00 1.728378602245874696e+00
2.260000000000000231e+00 1.718054920918249184e+00
2.280000000000000249e+00 1.707790118636962617e+00
2.300000000000000266e+00 1.697584327480487598e+00
2.319999999999999840e+00 1.687437650172948445e+00
2.339999999999999858e+00 1.677350180544735281e+00
2.359999999999999876e+00 1.667321984300031756e+00
2.379999999999999893e+00 1.657353119456272061e+00
2.399999999999999911e+00 1.647443617089359602e+00
2.419999999999999929e+00 1.637593501742665714e+00
2.439999999999999947e+00 1.627802772158939870e+00
2.459999999999999964e+00 1.618071421649640129e+00
2.479999999999999982e+00 1.608399418822954674e+00
2.500000000000000000e+00 1.598786727904384808e+00
2.520000000000000018e+00 1.589233289470151966e+00
2.540000000000000036e+00 1.579739040710050890e+00
2.560000000000000053e+00 1.570303896175888614e+00
2.580000000000000071e+00 1.560927767977702940e+00
2.600000000000000089e+00 1.551610546556716930e+00
2.620000000000000107e+00 1.542352120806132154e+00
2.640000000000000124e+00 1.533152358878385080e+00
2.660000000000000142e+00 1.524011128221745670e+00
2.680000000000000160e+00 1.514928276431549481e+00
2.700000000000000178e+00 1.505903651193895687e+00
2.720000000000000195e+00 1.496937081190760521e+00
2.740000000000000213e+00 1.488028395942153637e+00
2.760000000000000231e+00 1.479177406774862424e+00
2.780000000000000249e+00 1.470383926554454490e+00
2.800000000000000266e+00 1.461647750727643746e+00
2.819999999999999840e+00 1.452968676935553427e+00
2.839999999999999858e+00 1.444346486139511443e+00
2.859999999999999876e+00 1.435780962107049863e+00
2.879999999999999893e+00 1.427271872631112881e+00
2.899999999999999911e+00 1.418818988880285570e+00
2.919999999999999929e+00 1.410422066721255030e+00
2.939999999999999947e+00 1.402080865924747677e+00
2.959999999999999964e+00 1.393795131601250459e+00
2.979999999999999982e+00 1.385564613254192334e+00
3.000000000000000000e+00 1.377389046338723277e+00
3.020000000000000018e+00 1.369268171153705582e+00
3.040000000000000036e+00 1.361201714533489593e+00
3.060000000000000053e+00 1.353189408570262930e+00
3.080000000000000071e+00 1.345230972448626661e+00
3.100000000000000089e+00 1.337326130989854533e+00
3.120000000000000107e+00 1.329474596639172557e+00
3.140000000000000124e+00 1.321676087823508761e+00
3.160000000000000142e+00 1.313930311101195514e+00
3.180000000000000160e+00 1.306236979324801428e+00
3.200000000000000178e+00 1.298595793963079670e+00
3.220000000000000195e+00 1.291006463060484055e+00
3.240000000000000213e+00 1.283468683741005423e+00
3.260000000000000231e+00 1.275982159955978634e+00
3.280000000000000249e+00 1.268546585179556319e+00
3.300000000000000266e+00 1.261161659936415491e+00
3.320000000000000284e+00 1.253827074698419031e+00
3.339999999999999858e+00 1.246542527183867488e+00
3.359999999999999876e+00 1.239307705464983700e+00
3.379999999999999893e+00 1.232122305030327158e+00
3.399999999999999911e+00 1.224986012112592837e+00
3.419999999999999929e+00 1.217898520505815929e+00
3.439999999999999947e+00 1.210859515123022812e+00
3.459999999999999964e+00 1.203868688559891487e+00
3.479999999999999982e+00 1.196925724891606979e+00
3.500000000000000000e+00 1.190030315974641262e+00
3.520000000000000018e+00 1.183182145492254866e+00
3.540000000000000036e+00 1.176380904986064957e+00
3.560000000000000053e+00 1.169626278159445087e+00
3.580000000000000071e+00 1.162917956630571625e+00
3.600000000000000089e+00 1.156255624503049750e+00
3.620000000000000107e+00 1.149638973832132871e+00
3.640000000000000124e+00 1.143067689471713555e+00
3.660000000000000142e+00 1.136541464245450328e+00
3.680000000000000160e+00 1.130059984079320179e+00
3.700000000000000178e+00 1.123622942869364705e+00
3.720000000000000195e+00 1.117230027908868939e+00
3.740000000000000213e+00 1.110880934444469004e+00
3.760000000000000231e+00 1.104575351407035777e+00
3.780000000000000249e+00 1.098312975647907752e+00
3.800000000000000266e+00 1.092093497982414618e+00
3.820000000000000284e+00 1.085916617098014569e+00
3.839999999999999858e+00 1.079782025919437283e+00
3.859999999999999876e+00 1.073689425180522239e+00
3.879999999999999893e+00 1.067638510119787831e+00
3.899999999999999911e+00 1.061628983707805673e+00
3.919999999999999929e+00 1.055660543682057639e+00
3.939999999999999947e+00 1.049732895421678025e+00
3.959999999999999964e+00 1.043845739330317546e+00
3.979999999999999982e+00 1.037998783350095433e+00
4.000000000000000000e+00 1.032191730701248034e+00
4.020000000000000462e+00 1.026424292027169338e+00
4.040000000000000036e+00 1.020696173499421988e+00
4.060000000000000497e+00 1.015007088585791140e+00
4.080000000000000071e+00 1.009356746529309845e+00
4.099999999999999645e+00 1.003744863731248715e+00
4.120000000000000107e+00 9.981711526126489931e-01
4.139999999999999680e+00 9.926353326041766900e-01
4.160000000000000142e+00 9.871371193987505954e-01
4.179999999999999716e+00 9.816762355402317564e-01
4.200000000000000178e+00 9.762524000755018472e-01
4.219999999999999751e+00 9.708653387340059338e-01
4.240000000000000213e+00 9.655147739877452118e-01
4.259999999999999787e+00 9.602004348136824463e-01
4.280000000000000249e+00 9.549220471699432222e-01
4.299999999999999822e+00 9.496793433331197631e-01
4.320000000000000284e+00 9.444720527990531078e-01
4.339999999999999858e+00 9.392999111870985463e-01
4.360000000000000320e+00 9.341626515736909386e-01
4.379999999999999893e+00 9.290600129556718656e-01
4.400000000000000355e+00 9.239917320248879351e-01
4.419999999999999929e+00 9.189575511827031695e-01
4.440000000000000391e+00 9.139572107637506937e-01
4.459999999999999964e+00 9.089904565937617642e-01
4.480000000000000426e+00 9.040570326706710569e-01
4.500000000000000000e+00 8.991566882578997388e-01
4.520000000000000462e+00 8.942891710308563669e-01
4.540000000000000036e+00 8.894542336978707997e-01
4.560000000000000497e+00 8.846516276201820128e-01
4.580000000000000071e+00 8.798811089527293072e-01
4.600000000000000533e+00 8.751424327455884500e-01
4.620000000000000107e+00 8.704353585968388485e-01
4.639999999999999680e+00 8.657596452434969114e-01
4.660000000000000142e+00 8.611150557187002841e-01
4.679999999999999716e+00 8.565013524400079126e-01
4.700000000000000178e+00 8.519183018631886206e-01
4.719999999999999751e+00 8.473656700758520621e-01
4.740000000000000213e+00 8.428432269401199273e-01
4.759999999999999787e+00 8.383507421994177422e-01
4.780000000000000249e+00 8.338879891023220914e-01
4.799999999999999822e+00 8.294547410304268231e-01
4.820000000000000284e+00 8.250507745957021966e-01
4.839999999999999858e+00 8.206758667971765231e-01
4.860000000000000320e+00 8.163297975841526943e-01
4.879999999999999893e+00 8.120123475495638621e-01
4.900000000000000355e+00 8.077232999513982437e-01
4.919999999999999929e+00 8.034624389504402275e-01
4.940000000000000391e+00 7.992295510822712279e-01
4.959999999999999964e+00 7.950244240472071899e-01
4.980000000000000426e+00 7.908468476252453749e-01
5.000000000000000000e+00 7.866966130258730150e-01
5.020000000000000462e+00 7.825735132383666581e-01
5.040000000000000036e+00 7.784773429492122254e-01
5.060000000000000497e+00 7.744078983201768684e-01
5.080000000000000071e+00 7.703649774809705475e-01
5.100000000000000533e+00 7.663483797274951437e-01
5.120000000000000107e+00 7.623579065974886992e-01
5.139999999999999680e+00 7.583933604813671847e-01
5.160000000000000142e+00 7.544545462884576503e-01
5.179999999999999716e+00 7.505412694628569303e-01
5.200000000000000178e+00 7.466533382479593195e-01
5.219999999999999751e+00 7.427905610997671548e-01
5.240000000000000213e+00 7.389527495572939531e-01
5.259999999999999787e+00 7.351397150457565921e-01
5.280000000000000249e+00 7.313512723605433141e-01
5.299999999999999822e+00 7.275872358527319950e-01
5.320000000000000284e+00 7.238474235341824103e-01
5.339999999999999858e+00 7.201316526378248595e-01
5.360000000000000320e+00 7.164397443515426733e-01
5.379999999999999893e+00 7.127715187456703516e-01
5.400000000000000355e+00 7.091268001432444734e-01
5.419999999999999929e+00 7.055054114071177551e-01
5.440000000000000391e+00 7.019071799542689893e-01
5.459999999999999964e+00 6.983319313949569729e-01
5.480000000000000426e+00 6.947794961986523132e-01
5.500000000000000000e+00 6.912497026776529552e-01
5.520000000000000462e+00 6.877423843123200431e-01
5.540000000000000036e+00 6.842573720715552366e-01
5.560000000000000497e+00 6.807945024049342209e-01
5.580000000000000071e+00 6.773536088924337895e-01
5.600000000000000533e+00 6.739345309111610671e-01
5.620000000000000107e+00 6.705371046067114538e-01
5.639999999999999680e+00 6.671611722421082469e-01
5.660000000000000142e+00 6.638065724831443415e-01
5.679999999999999716e+00 6.604731504372611806e-01
5.700000000000000178e+00 6.571607472452154486e-01
5.719999999999999751e+00 6.538692108175505613e-01
5.740000000000000213e+00 6.505983847248999474e-01
5.759999999999999787e+00 6.473481196398133131e-01
5.780000000000000249e+00 6.441182615179974480e-01
5.799999999999999822e+00 6.409086637531866693e-01
5.820000000000000284e+00 6.377191746415979967e-01
5.839999999999999858e+00 6.345496502576379871e-01
5.860000000000000320e+00 6.313999411938183703e-01
5.879999999999999893e+00 6.282699061650657280e-01
5.900000000000000355e+00 6.251593980162871711e-01
5.919999999999999929e+00 6.220682780631490161e-01
5.940000000000000391e+00 6.189964013594774217e-01
5.959999999999999964e+00 6.159436317823143714e-01
5.980000000000000426e+00 6.129098265512903376e-01
6.000000000000000000e+00 6.098948520658999950e-01
6.020000000000000462e+00 6.068985676689420128e-01
6.040000000000000036e+00 6.039208422438979706e-01
6.060000000000000497e+00 6.009615372145040713e-01
6.080000000000000071e+00 5.980205239102518444e-01
6.100000000000000533e+00 5.950976657941022818e-01
6.120000000000000107e+00 5.921928366040778435e-01
6.140000000000000568e+00 5.893059018010923245e-01
6.160000000000000142e+00 5.864367374947382361e-01
6.179999999999999716e+00 5.835852111031558653e-01
6.200000000000000178e+00 5.807512010710852435e-01
6.219999999999999751e+00 5.779345767336254713e-01
6.240000000000000213e+00 5.751352188347794714e-01
6.259999999999999787e+00 5.723529985869184600e-01
6.280000000000000249e+00 5.695877989979795109e-01
6.299999999999999822e+00 5.668394931183897700e-01
6.320000000000000284e+00 5.641079661852549387e-01
6.339999999999999858e+00 5.613930930484334336e-01
6.360000000000000320e+00 5.586947611400009395e-01
6.379999999999999893e+00 5.560128470711079851e-01
6.400000000000000355e+00 5.533472404351822416e-01
6.419999999999999929e+00 5.506978195671238252e-01
6.440000000000000391e+00 5.480644761886654948e-01
6.459999999999999964e+00 5.454470903214100330e-01
6.480000000000000426e+00 5.428455557829406919e-01
6.500000000000000000e+00 5.402597542451096357e-01
6.520000000000000462e+00 5.376895815894723318e-01
6.540000000000000036e+00 5.351349211021743102e-01
6.560000000000000497e+00 5.325956706974547261e-01
6.580000000000000071e+00 5.300717152403919830e-01
6.600000000000000533e+00 5.275629546472080378e-01
6.620000000000000107e+00 5.250692753270462809e-01
6.640000000000000568e+00 5.225905791679912316e-01
6.660000000000000142e+00 5.201267540889726870e-01
6.679999999999999716e+00 5.176777039203994679e-01
6.700000000000000178e+00 5.152433180572016935e-01
6.719999999999999751e+00 5.128235022431562040e-01
6.740000000000000213e+00 5.104181473159883353e-01
6.759999999999999787e+00 5.080271609044636483e-01
6.780000000000000249e+00 5.056504352563714333e-01
6.799999999999999822e+00 5.032878798576670976e-01
6.820000000000000284e+00 5.009393883340444997e-01
6.839999999999999858e+00 4.986048720014206181e-01
6.860000000000000320e+00 4.962842258317004540e-01
6.879999999999999893e+00 4.939773629440940561e-01
6.900000000000000355e+00 4.916841796255974617e-01
6.919999999999999929e+00 4.894045907726097266e-01
6.940000000000000391e+00 4.871384939565375216e-01
6.959999999999999964e+00 4.848858058254207903e-01
6.980000000000000426e+00 4.826464252049522119e-01
7.000000000000000000e+00 4.804202704698227189e-01
7.020000000000000462e+00 4.782072416703165851e-01
7.040000000000000036e+00 4.760072588833244023e-01
7.060000000000000497e+00 4.738202233545725783e-01
7.080000000000000071e+00 4.716460568392407127e-01
7.100000000000000533e+00 4.694846617497598351e-01
7.120000000000000107e+00 4.673359614962270814e-01
7.140000000000000568e+00 4.651998596295657817e-01
7.160000000000000142e+00 4.630762811919436062e-01
7.179999999999999716e+00 4.609651308449658202e-01
7.200000000000000178e+00 4.588663352405421558e-01
7.219999999999999751e+00 4.567798001236565986e-01
7.240000000000000213e+00 4.547054537341561620e-01
7.259999999999999787e+00 4.526432028734823643e-01
7.280000000000000249e+00 4.505929773481137102e-01
7.299999999999999822e+00 4.485546849895182264e-01
7.320000000000000284e+00 4.465282571500087672e-01
7.339999999999999858e+00 4.445136026650202132e-01
7.360000000000000320e+00 4.425106544123960095e-01
7.379999999999999893e+00 4.405193222059458069e-01
7.400000000000000355e+00 4.385395404292293797e-01
7.419999999999999929e+00 4.365712198491888962e-01
7.440000000000000391e+00 4.346142963357672584e-01
7.459999999999999964e+00 4.326686815842554212e-01
7.480000000000000426e+00 4.307343129321219433e-01
7.500000000000000000e+00 4.288111029785529604e-01
7.520000000000000462e+00 4.268989905101486793e-01
7.540000000000000036e+00 4.249978890059838421e-01
7.560000000000000497e+00 4.231077386838672516e-01
7.580000000000000071e+00 4.212284538790490585e-01
7.600000000000000533e+00 4.193599762230713623e-01
7.620000000000000107e+00 4.175022208840905025e-01
7.640000000000000568e+00 4.156551308903620456e-01
7.660000000000000142e+00 4.138186222199599085e-01
7.679999999999999716e+00 4.119926392812698346e-01
7.700000000000000178e+00 4.101770988397047679e-01
7.719999999999999751e+00 4.083719466676386523e-01
7.740000000000000213e+00 4.065771002955204660e-01
7.759999999999999787e+00 4.047925068439974239e-01
7.780000000000000249e+00 4.030180845866428441e-01
7.799999999999999822e+00 4.012537819770841674e-01
7.820000000000000284e+00 3.994995180103674270e-01
7.839999999999999858e+00 3.977552424582239676e-01
7.860000000000000320e+00 3.960208750158899504e-01
7.879999999999999893e+00 3.942963667587431886e-01
