# Electrodo circular de radio 6 mm y espesor 710.0 um.
# Volumen de simulacion (convencion z,y,x):
# N: 1024 x 1024 x 1024 | voxelSize:  0.02mm x 0.02mm x 0.02mm | FOV:  20.48mm x 20.48mm x 20.48mm
# 
# z [mm]		 delta[ppm]
0.000000000000000000e+00 2.454273975131118224e+00
2.000000000000000042e-02 2.451403201935164589e+00
4.000000000000000083e-02 2.448446056853233355e+00
5.999999999999999778e-02 2.445403186472151713e+00
8.000000000000000167e-02 2.442275188002863917e+00
1.000000000000000056e-01 2.439062667213844904e+00
1.199999999999999956e-01 2.435766245556534315e+00
1.400000000000000133e-01 2.432386560494503414e+00
1.600000000000000033e-01 2.428924261338219814e+00
1.799999999999999933e-01 2.425380013358215514e+00
2.000000000000000111e-01 2.421754492474538001e+00
2.200000000000000011e-01 2.418048389971259482e+00
2.399999999999999911e-01 2.414262407123108023e+00
2.600000000000000089e-01 2.410397259980710416e+00
2.800000000000000266e-01 2.406453673906340462e+00
2.999999999999999889e-01 2.402432388474635694e+00
3.200000000000000067e-01 2.398334151849328411e+00
3.400000000000000244e-01 2.394159725829212881e+00
3.599999999999999867e-01 2.389909880074219561e+00
3.800000000000000044e-01 2.385585397313110700e+00
4.000000000000000222e-01 2.381187067379742839e+00
4.199999999999999845e-01 2.376715692594570051e+00
4.400000000000000022e-01 2.372172081629185136e+00
4.600000000000000200e-01 2.367557055065501181e+00
4.799999999999999822e-01 2.362871439066214663e+00
5.000000000000000000e-01 2.358116071116083123e+00
5.200000000000000178e-01 2.353291793515388086e+00
5.400000000000000355e-01 2.348399459303307957e+00
5.600000000000000533e-01 2.343439925560967030e+00
5.799999999999999600e-01 2.338414059517985866e+00
5.999999999999999778e-01 2.333322731679930317e+00
6.199999999999999956e-01 2.328166822116468193e+00
6.400000000000000133e-01 2.322947213405095468e+00
6.600000000000000311e-01 2.317664797100229102e+00
6.800000000000000488e-01 2.312320466506094352e+00
7.000000000000000666e-01 2.306915123324315253e+00
7.199999999999999734e-01 2.301449670251262347e+00
7.399999999999999911e-01 2.295925017802419532e+00
7.600000000000000089e-01 2.290342076745528921e+00
7.800000000000000266e-01 2.284701765098777759e+00
8.000000000000000444e-01 2.279005000397364977e+00
8.200000000000000622e-01 2.273252706863031491e+00
8.399999999999999689e-01 2.267445807514255840e+00
8.599999999999999867e-01 2.261585231503765669e+00
8.800000000000000044e-01 2.255671906071645250e+00
9.000000000000000222e-01 2.249706764047758156e+00
9.200000000000000400e-01 2.243690735657142277e+00
9.400000000000000577e-01 2.237624756183651087e+00
9.599999999999999645e-01 2.231509757628088675e+00
9.799999999999999822e-01 2.225346676529563084e+00
1.000000000000000000e+00 2.219136445485126785e+00
1.020000000000000018e+00 2.212880001124764462e+00
1.040000000000000036e+00 2.206578275493962238e+00
1.060000000000000053e+00 2.200232204178430795e+00
1.080000000000000071e+00 2.193842717557848765e+00
1.100000000000000089e+00 2.187410749075960226e+00
1.120000000000000107e+00 2.180937226367651860e+00
1.140000000000000124e+00 2.174423079670141146e+00
1.159999999999999920e+00 2.167869232831291626e+00
1.179999999999999938e+00 2.161276611857225749e+00
1.199999999999999956e+00 2.154646135804619167e+00
1.219999999999999973e+00 2.147978725460146343e+00
1.239999999999999991e+00 2.141275294124348694e+00
1.260000000000000009e+00 2.134536756417985348e+00
1.280000000000000027e+00 2.127764018960708992e+00
1.300000000000000044e+00 2.120957989299393720e+00
1.320000000000000062e+00 2.114119566489027324e+00
1.340000000000000080e+00 2.107249650137813735e+00
1.360000000000000098e+00 2.100349130893919281e+00
1.380000000000000115e+00 2.093418899602141892e+00
1.400000000000000133e+00 2.086459837703754872e+00
1.419999999999999929e+00 2.079472826499286775e+00
1.439999999999999947e+00 2.072458737465450618e+00
1.459999999999999964e+00 2.065418441618556589e+00
1.479999999999999982e+00 2.058352799755659213e+00
1.500000000000000000e+00 2.051262671912905233e+00
1.520000000000000018e+00 2.044148907535196624e+00
1.540000000000000036e+00 2.037012355023724464e+00
1.560000000000000053e+00 2.029853851841215473e+00
1.580000000000000071e+00 2.022674234142735283e+00
1.600000000000000089e+00 2.015474326821062867e+00
1.620000000000000107e+00 2.008254953214803962e+00
1.640000000000000124e+00 2.001016925100902899e+00
1.660000000000000142e+00 1.993761052473926432e+00
1.679999999999999938e+00 1.986488133490508234e+00
1.699999999999999956e+00 1.979198964313625408e+00
1.719999999999999973e+00 1.971894329015966507e+00
1.739999999999999991e+00 1.964575009482846246e+00
1.760000000000000009e+00 1.957241775279535689e+00
1.780000000000000027e+00 1.949895393606413840e+00
1.800000000000000044e+00 1.942536619137249954e+00
1.820000000000000062e+00 1.935166204020064340e+00
1.840000000000000080e+00 1.927784887691598170e+00
1.860000000000000098e+00 1.920393406917300094e+00
1.880000000000000115e+00 1.912992485588981717e+00
1.900000000000000133e+00 1.905582844797236053e+00
1.919999999999999929e+00 1.898165192617685681e+00
1.939999999999999947e+00 1.890740234209103976e+00
1.959999999999999964e+00 1.883308661595285427e+00
1.979999999999999982e+00 1.875871163781973161e+00
2.000000000000000000e+00 1.868428416539982706e+00
2.020000000000000018e+00 1.860981092534045755e+00
2.040000000000000036e+00 1.853529851114223526e+00
2.060000000000000053e+00 1.846075348449665920e+00
2.080000000000000071e+00 1.838618227334094302e+00
2.100000000000000089e+00 1.831159127317424584e+00
2.120000000000000107e+00 1.823698674532443942e+00
2.140000000000000124e+00 1.816237491817140226e+00
2.160000000000000142e+00 1.808776188568518739e+00
2.180000000000000160e+00 1.801315370848459274e+00
2.200000000000000178e+00 1.793855631271844553e+00
2.220000000000000195e+00 1.786397559088670262e+00
2.240000000000000213e+00 1.778941730112592268e+00
2.260000000000000231e+00 1.771488716772000593e+00
2.280000000000000249e+00 1.764039078086194312e+00
2.300000000000000266e+00 1.756593369678039362e+00
2.319999999999999840e+00 1.749152133804050102e+00
2.339999999999999858e+00 1.741715909321205791e+00
2.359999999999999876e+00 1.734285221778234076e+00
2.379999999999999893e+00 1.726860593329111682e+00
2.399999999999999911e+00 1.719442532891940711e+00
2.419999999999999929e+00 1.712031546001631765e+00
2.439999999999999947e+00 1.704628125043749387e+00
2.459999999999999964e+00 1.697232759038779903e+00
2.479999999999999982e+00 1.689845923957500551e+00
2.500000000000000000e+00 1.682468092429244999e+00
2.520000000000000018e+00 1.675099724146215330e+00
2.540000000000000036e+00 1.667741275488092700e+00
2.560000000000000053e+00 1.660393190021978382e+00
2.580000000000000071e+00 1.653055908035659716e+00
2.600000000000000089e+00 1.645729857140685315e+00
2.620000000000000107e+00 1.638415461706563825e+00
2.640000000000000124e+00 1.631113133573782070e+00
2.660000000000000142e+00 1.623823281381166828e+00
2.680000000000000160e+00 1.616546301396444063e+00
2.700000000000000178e+00 1.609282586728959741e+00
2.720000000000000195e+00 1.602032518284696838e+00
2.740000000000000213e+00 1.594796473856538999e+00
2.760000000000000231e+00 1.587574819211415189e+00
2.780000000000000249e+00 1.580367917050230497e+00
2.800000000000000266e+00 1.573176118234175247e+00
2.819999999999999840e+00 1.565999770606459229e+00
2.839999999999999858e+00 1.558839210365502659e+00
2.859999999999999876e+00 1.551694770740552620e+00
2.879999999999999893e+00 1.544566773518920577e+00
2.899999999999999911e+00 1.537455537567529174e+00
2.919999999999999929e+00 1.530361370522019371e+00
2.939999999999999947e+00 1.523284577146226226e+00
2.959999999999999964e+00 1.516225451190427620e+00
2.979999999999999982e+00 1.509184283580776054e+00
3.000000000000000000e+00 1.502161354454541575e+00
3.020000000000000018e+00 1.495156941171481790e+00
3.040000000000000036e+00 1.488171310533445979e+00
3.060000000000000053e+00 1.481204726609636202e+00
3.080000000000000071e+00 1.474257443148526914e+00
3.100000000000000089e+00 1.467329711208936738e+00
3.120000000000000107e+00 1.460421771771722943e+00
3.140000000000000124e+00 1.453533863168590345e+00
3.160000000000000142e+00 1.446666213901570686e+00
3.180000000000000160e+00 1.439819049861434719e+00
3.200000000000000178e+00 1.432992587362520664e+00
3.220000000000000195e+00 1.426187040142651075e+00
3.240000000000000213e+00 1.419402612621340598e+00
3.260000000000000231e+00 1.412639506673066814e+00
3.280000000000000249e+00 1.405897915116530283e+00
3.300000000000000266e+00 1.399178028253100781e+00
3.320000000000000284e+00 1.392480027595246916e+00
3.339999999999999858e+00 1.385804092161972312e+00
3.359999999999999876e+00 1.379150392454148388e+00
3.379999999999999893e+00 1.372519096498733271e+00
3.399999999999999911e+00 1.365910364079203632e+00
3.419999999999999929e+00 1.359324352520312695e+00
3.439999999999999947e+00 1.352761211181420009e+00
3.459999999999999964e+00 1.346221086973595327e+00
3.479999999999999982e+00 1.339704119124050186e+00
3.500000000000000000e+00 1.333210444417310070e+00
3.520000000000000018e+00 1.326740192238668570e+00
3.540000000000000036e+00 1.320293489531157105e+00
3.560000000000000053e+00 1.313870456126282393e+00
3.580000000000000071e+00 1.307471209408496815e+00
3.600000000000000089e+00 1.301095859941203692e+00
3.620000000000000107e+00 1.294744515830424714e+00
3.640000000000000124e+00 1.288417278654379938e+00
3.660000000000000142e+00 1.282114247518041594e+00
3.680000000000000160e+00 1.275835515294327260e+00
3.700000000000000178e+00 1.269581172361176513e+00
3.720000000000000195e+00 1.263351303162759010e+00
3.740000000000000213e+00 1.257145989620722881e+00
3.760000000000000231e+00 1.250965308023482825e+00
3.780000000000000249e+00 1.244809332103292254e+00
3.800000000000000266e+00 1.238678130262037103e+00
3.820000000000000284e+00 1.232571768305725790e+00
3.839999999999999858e+00 1.226490307014965975e+00
3.859999999999999876e+00 1.220433804528463284e+00
3.879999999999999893e+00 1.214402314266643801e+00
3.899999999999999911e+00 1.208395886955740073e+00
3.919999999999999929e+00 1.202414568912789417e+00
3.939999999999999947e+00 1.196458403701860629e+00
3.959999999999999964e+00 1.190527430788943741e+00
3.979999999999999982e+00 1.184621686821863307e+00
4.000000000000000000e+00 1.178741204663345643e+00
4.020000000000000462e+00 1.172886014286133927e+00
4.040000000000000036e+00 1.167056142192786306e+00
4.060000000000000497e+00 1.161251611917526017e+00
4.080000000000000071e+00 1.155472443841091268e+00
4.099999999999999645e+00 1.149718655290815850e+00
4.120000000000000107e+00 1.143990260759132127e+00
4.139999999999999680e+00 1.138287271593345196e+00
4.160000000000000142e+00 1.132609696626205809e+00
4.179999999999999716e+00 1.126957541446823807e+00
4.200000000000000178e+00 1.121330809451941857e+00
4.219999999999999751e+00 1.115729500689440323e+00
4.240000000000000213e+00 1.110153613338768608e+00
4.259999999999999787e+00 1.104603142118445458e+00
4.280000000000000249e+00 1.099078080204325403e+00
4.299999999999999822e+00 1.093578417192517582e+00
4.320000000000000284e+00 1.088104141463993813e+00
4.339999999999999858e+00 1.082655237694265971e+00
4.360000000000000320e+00 1.077231689673118220e+00
4.379999999999999893e+00 1.071833477352382991e+00
4.400000000000000355e+00 1.066460580129331204e+00
4.419999999999999929e+00 1.061112973423920858e+00
4.440000000000000391e+00 1.055790632434598475e+00
4.459999999999999964e+00 1.050493528236349228e+00
4.480000000000000426e+00 1.045221632017545366e+00
4.500000000000000000e+00 1.039974910690032450e+00
4.520000000000000462e+00 1.034753331615891447e+00
4.540000000000000036e+00 1.029556857720858254e+00
4.560000000000000497e+00 1.024385452719624112e+00
4.580000000000000071e+00 1.019239075723833432e+00
4.600000000000000533e+00 1.014117686974830734e+00
4.620000000000000107e+00 1.009021241937446689e+00
4.639999999999999680e+00 1.003949697548921272e+00
4.660000000000000142e+00 9.989030057896670645e-01
4.679999999999999716e+00 9.938811204573034797e-01
4.700000000000000178e+00 9.888839902055708286e-01
4.719999999999999751e+00 9.839115658522736840e-01
4.740000000000000213e+00 9.789637928774596043e-01
4.759999999999999787e+00 9.740406192742814273e-01
4.780000000000000249e+00 9.691419874975545357e-01
4.799999999999999822e+00 9.642678428663867818e-01
4.820000000000000284e+00 9.594181249541932077e-01
4.839999999999999858e+00 9.545927765521431407e-01
4.860000000000000320e+00 9.497917344917025106e-01
4.879999999999999893e+00 9.450149391777938890e-01
4.900000000000000355e+00 9.402623248348874752e-01
4.919999999999999929e+00 9.355338296190093272e-01
4.940000000000000391e+00 9.308293852783604549e-01
4.959999999999999964e+00 9.261489278531499503e-01
4.980000000000000426e+00 9.214923867417001979e-01
5.000000000000000000e+00 9.168596959972962201e-01
5.020000000000000462e+00 9.122507827906999323e-01
5.040000000000000036e+00 9.076655793130596894e-01
5.060000000000000497e+00 9.031040106257234301e-01
5.080000000000000071e+00 8.985660071784621339e-01
5.100000000000000533e+00 8.940514920374437180e-01
5.120000000000000107e+00 8.895603940278904442e-01
5.139999999999999680e+00 8.850926343310122624e-01
5.160000000000000142e+00 8.806481402604485753e-01
5.179999999999999716e+00 8.762268312189380737e-01
5.200000000000000178e+00 8.718286331177339532e-01
5.219999999999999751e+00 8.674534636837504253e-01
5.240000000000000213e+00 8.631012475313680765e-01
5.259999999999999787e+00 8.587719008107456142e-01
5.280000000000000249e+00 8.544653469412966107e-01
5.299999999999999822e+00 8.501815005918395007e-01
5.320000000000000284e+00 8.459202840852162453e-01
5.339999999999999858e+00 8.416816107009000847e-01
5.360000000000000320e+00 8.374654017601395051e-01
5.379999999999999893e+00 8.332715692415630926e-01
5.400000000000000355e+00 8.291000335564471246e-01
5.419999999999999929e+00 8.249507054678449913e-01
5.440000000000000391e+00 8.208235045654290740e-01
5.459999999999999964e+00 8.167183404786215739e-01
5.480000000000000426e+00 8.126351320606817197e-01
5.500000000000000000e+00 8.085737878862694350e-01
5.520000000000000462e+00 8.045342261543370066e-01
5.540000000000000036e+00 8.005163544604859682e-01
5.560000000000000497e+00 7.965200904284605032e-01
5.580000000000000071e+00 7.925453407476130696e-01
5.600000000000000533e+00 7.885920225426364949e-01
5.620000000000000107e+00 7.846600416664456512e-01
5.639999999999999680e+00 7.807493148180112419e-01
5.660000000000000142e+00 7.768597470808662475e-01
5.679999999999999716e+00 7.729912547988222471e-01
5.700000000000000178e+00 7.691437423502449633e-01
5.719999999999999751e+00 7.653171257916606685e-01
5.740000000000000213e+00 7.615113088579099632e-01
5.759999999999999787e+00 7.577262073834963862e-01
5.780000000000000249e+00 7.539617245186732708e-01
5.799999999999999822e+00 7.502177759386596811e-01
5.820000000000000284e+00 7.464942642656389182e-01
5.839999999999999858e+00 7.427911050758204681e-01
5.860000000000000320e+00 7.391082005172835423e-01
5.879999999999999893e+00 7.354454661251276226e-01
5.900000000000000355e+00 7.318028036250149304e-01
5.919999999999999929e+00 7.281801285665187029e-01
5.940000000000000391e+00 7.245773423021694137e-01
5.959999999999999964e+00 7.209943604493683766e-01
5.980000000000000426e+00 7.174310840346528328e-01
6.000000000000000000e+00 7.138874287944337871e-01
6.020000000000000462e+00 7.103632954741386785e-01
6.040000000000000036e+00 7.068585999782662777e-01
6.060000000000000497e+00 7.033732428140117010e-01
6.080000000000000071e+00 6.999071401010145133e-01
6.100000000000000533e+00 6.964601921489700365e-01
6.120000000000000107e+00 6.930323153377498935e-01
6.140000000000000568e+00 6.896234098184234051e-01
6.160000000000000142e+00 6.862333922742644976e-01
6.179999999999999716e+00 6.828621627345823342e-01
6.200000000000000178e+00 6.795096382274032898e-01
6.219999999999999751e+00 6.761757186953770704e-01
6.240000000000000213e+00 6.728603215508447422e-01
6.259999999999999787e+00 6.695633466830385183e-01
6.280000000000000249e+00 6.662847119264602158e-01
6.299999999999999822e+00 6.630243171485049603e-01
6.320000000000000284e+00 6.597820806420241491e-01
6.339999999999999858e+00 6.565579022824123978e-01
6.360000000000000320e+00 6.533517008554504679e-01
6.379999999999999893e+00 6.501633762728360466e-01
6.400000000000000355e+00 6.469928478463184973e-01
6.419999999999999929e+00 6.438400155505419331e-01
6.440000000000000391e+00 6.407047992547720838e-01
6.459999999999999964e+00 6.375870990218338585e-01
6.480000000000000426e+00 6.344868353086106083e-01
6.500000000000000000e+00 6.314039082897883182e-01
6.520000000000000462e+00 6.283382390385869876e-01
6.540000000000000036e+00 6.252897278639130141e-01
6.560000000000000497e+00 6.222582964826993690e-01
6.580000000000000071e+00 6.192438453589855785e-01
6.600000000000000533e+00 6.162462968795133778e-01
6.620000000000000107e+00 6.132655516831375664e-01
6.640000000000000568e+00 6.103015328512557680e-01
6.660000000000000142e+00 6.073541412158719455e-01
6.679999999999999716e+00 6.044233005766870281e-01
6.700000000000000178e+00 6.015089119760513858e-01
6.719999999999999751e+00 5.986108999544746956e-01
6.740000000000000213e+00 5.957291657805774410e-01
6.759999999999999787e+00 5.928636347570720444e-01
6.780000000000000249e+00 5.900142083937324200e-01
6.799999999999999822e+00 5.871808127758024742e-01
6.820000000000000284e+00 5.843633496678948269e-01
6.839999999999999858e+00 5.815617459570934233e-01
6.860000000000000320e+00 5.787759036755787401e-01
6.879999999999999893e+00 5.760057505305941072e-01
6.900000000000000355e+00 5.732511888335003469e-01
6.919999999999999929e+00 5.705121471290789392e-01
6.940000000000000391e+00 5.677885280186009131e-01
6.959999999999999964e+00 5.650802609008455102e-01
6.980000000000000426e+00 5.623872486766814394e-01
7.000000000000000000e+00 5.597094216144890000e-01
7.020000000000000462e+00 5.570466829236015993e-01
7.040000000000000036e+00 5.543989637567640072e-01
7.060000000000000497e+00 5.517661676396693471e-01
7.080000000000000071e+00 5.491482266233838061e-01
7.100000000000000533e+00 5.465450445571150562e-01
7.120000000000000107e+00 5.439565544034415945e-01
7.140000000000000568e+00 5.413826603413224303e-01
7.160000000000000142e+00 5.388232962573082929e-01
7.179999999999999716e+00 5.362783666656635306e-01
7.200000000000000178e+00 5.337478063886584856e-01
7.219999999999999751e+00 5.312315202805738545e-01
7.240000000000000213e+00 5.287294441104740672e-01
7.259999999999999787e+00 5.262414830767366825e-01
7.280000000000000249e+00 5.237675739056496527e-01
7.299999999999999822e+00 5.213076221429708834e-01
7.320000000000000284e+00 5.188615654820243339e-01
7.339999999999999858e+00 5.164293098186737430e-01
7.360000000000000320e+00 5.140107938224993678e-01
7.379999999999999893e+00 5.116059237414447569e-01
7.400000000000000355e+00 5.092146392299996549e-01
7.419999999999999929e+00 5.068368468896510270e-01
7.440000000000000391e+00 5.044724873679234944e-01
7.459999999999999964e+00 5.021214676206054994e-01
7.480000000000000426e+00 4.997837292958624000e-01
7.500000000000000000e+00 4.974591797040863184e-01
7.520000000000000462e+00 4.951477615011952715e-01
7.540000000000000036e+00 4.928493823518431127e-01
7.560000000000000497e+00 4.905639859263489777e-01
7.580000000000000071e+00 4.882914802428470757e-01
7.600000000000000533e+00 4.860318099922608104e-01
7.620000000000000107e+00 4.837848835448382845e-01
7.640000000000000568e+00 4.815506466178925971e-01
7.660000000000000142e+00 4.793290079320152719e-01
7.679999999999999716e+00 4.771199142362923529e-01
7.700000000000000178e+00 4.749232745993399174e-01
7.719999999999999751e+00 4.727390368070060744e-01
7.740000000000000213e+00 4.705671102732713051e-01
7.759999999999999787e+00 4.684074438253865713e-01
7.780000000000000249e+00 4.662599472194961514e-01
7.799999999999999822e+00 4.641245703285454272e-01
7.820000000000000284e+00 4.620012232473457714e-01
7.839999999999999858e+00 4.598898568985009261e-01
7.860000000000000320e+00 4.577903817114972740e-01
7.879999999999999893e+00 4.557027496622532148e-01
