# Electrodo circular de radio 6 mm y espesor 710.0 um.
# Volumen de simulacion (convencion z,y,x):
# N: 1024 x 1024 x 1024 | voxelSize:  0.02mm x 0.02mm x 0.02mm | FOV:  20.48mm x 20.48mm x 20.48mm
# 
# z [mm]		 delta[ppm]
0.000000000000000000e+00 2.484529144724805683e+00
2.000000000000000042e-02 2.481479448862843107e+00
4.000000000000000083e-02 2.478338616588045884e+00
5.999999999999999778e-02 2.475107238517512798e+00
8.000000000000000167e-02 2.471785983068093717e+00
1.000000000000000056e-01 2.468375544404756816e+00
1.199999999999999956e-01 2.464876627583530766e+00
1.400000000000000133e-01 2.461289955402155449e+00
1.600000000000000033e-01 2.457616263426403158e+00
1.799999999999999933e-01 2.453856303942475225e+00
2.000000000000000111e-01 2.450010841676863116e+00
2.200000000000000011e-01 2.446080657618673104e+00
2.399999999999999911e-01 2.442066544220023783e+00
2.600000000000000089e-01 2.437969309623571057e+00
2.800000000000000266e-01 2.433789772513978988e+00
2.999999999999999889e-01 2.429528766668364703e+00
3.200000000000000067e-01 2.425187135472076427e+00
3.400000000000000244e-01 2.420765736761659515e+00
3.599999999999999867e-01 2.416265437062883770e+00
3.800000000000000044e-01 2.411687116695129252e+00
4.000000000000000222e-01 2.407031663743226524e+00
4.199999999999999845e-01 2.402299979409247221e+00
4.400000000000000022e-01 2.397492971740698753e+00
4.600000000000000200e-01 2.392611561217094174e+00
4.799999999999999822e-01 2.387656674242701893e+00
5.000000000000000000e-01 2.382629248960259627e+00
5.200000000000000178e-01 2.377530228520471578e+00
5.400000000000000355e-01 2.372360567115853414e+00
5.600000000000000533e-01 2.367121223033717303e+00
5.799999999999999600e-01 2.361813164904951190e+00
5.999999999999999778e-01 2.356437364548825908e+00
6.199999999999999956e-01 2.350994803431778468e+00
6.400000000000000133e-01 2.345486465310103519e+00
6.600000000000000311e-01 2.339913342894452075e+00
6.800000000000000488e-01 2.334276430297209881e+00
7.000000000000000666e-01 2.328576729898478970e+00
7.199999999999999734e-01 2.322815244603903206e+00
7.399999999999999911e-01 2.316992984908204267e+00
7.600000000000000089e-01 2.311110960969470440e+00
7.800000000000000266e-01 2.305170189866258212e+00
8.000000000000000444e-01 2.299171687493988703e+00
8.200000000000000622e-01 2.293116476011674010e+00
8.399999999999999689e-01 2.287005575566102511e+00
8.599999999999999867e-01 2.280840011924183841e+00
8.800000000000000044e-01 2.274620808030511920e+00
9.000000000000000222e-01 2.268348991821241611e+00
9.200000000000000400e-01 2.262025587620566380e+00
9.400000000000000577e-01 2.255651624131983279e+00
9.599999999999999645e-01 2.249228125679218593e+00
9.799999999999999822e-01 2.242756120370617889e+00
1.000000000000000000e+00 2.236236631190017476e+00
1.020000000000000018e+00 2.229670684329847941e+00
1.040000000000000036e+00 2.223059300137514960e+00
1.060000000000000053e+00 2.216403501612734583e+00
1.080000000000000071e+00 2.209704305214870157e+00
1.100000000000000089e+00 2.202962729519856389e+00
1.120000000000000107e+00 2.196179785894096348e+00
1.140000000000000124e+00 2.189356487306188370e+00
1.159999999999999920e+00 2.182493838872884506e+00
1.179999999999999938e+00 2.175592846820701531e+00
1.199999999999999956e+00 2.168654508909569678e+00
1.219999999999999973e+00 2.161679823539298440e+00
1.239999999999999991e+00 2.154669780056417405e+00
1.260000000000000009e+00 2.147625368000331658e+00
1.280000000000000027e+00 2.140547567299037279e+00
1.300000000000000044e+00 2.133437357649632826e+00
1.320000000000000062e+00 2.126295708608501034e+00
1.340000000000000080e+00 2.119123589100729177e+00
1.360000000000000098e+00 2.111921957410483497e+00
1.380000000000000115e+00 2.104691770813761131e+00
1.400000000000000133e+00 2.097433975474586099e+00
1.419999999999999929e+00 2.090149516195411561e+00
1.439999999999999947e+00 2.082839326224914522e+00
1.459999999999999964e+00 2.075504337120208653e+00
1.479999999999999982e+00 2.068145468471958459e+00
1.500000000000000000e+00 2.060763637872455423e+00
1.520000000000000018e+00 2.053359750563918062e+00
1.540000000000000036e+00 2.045934709506328275e+00
1.560000000000000053e+00 2.038489404954720197e+00
1.580000000000000071e+00 2.031024724620623889e+00
1.600000000000000089e+00 2.023541543184244063e+00
1.620000000000000107e+00 2.016040732543210368e+00
1.640000000000000124e+00 2.008523151265545259e+00
1.660000000000000142e+00 2.000989654919313576e+00
1.679999999999999938e+00 1.993441085472375196e+00
1.699999999999999956e+00 1.985878281696449976e+00
1.719999999999999973e+00 1.978302068519618206e+00
1.739999999999999991e+00 1.970713267498194643e+00
1.760000000000000009e+00 1.963112686128086537e+00
1.780000000000000027e+00 1.955501128377762798e+00
1.800000000000000044e+00 1.947879383964541189e+00
1.820000000000000062e+00 1.940248238941879144e+00
1.840000000000000080e+00 1.932608464946780735e+00
1.860000000000000098e+00 1.924960829834514886e+00
1.880000000000000115e+00 1.917306086903324935e+00
1.900000000000000133e+00 1.909644985569631581e+00
1.919999999999999929e+00 1.901978260576306479e+00
1.939999999999999947e+00 1.894306642701341969e+00
1.959999999999999964e+00 1.886630847955979462e+00
1.979999999999999982e+00 1.878951588319703658e+00
2.000000000000000000e+00 1.871269560934630372e+00
2.020000000000000018e+00 1.863585458859665200e+00
2.040000000000000036e+00 1.855899960267512583e+00
2.060000000000000053e+00 1.848213739210761375e+00
2.080000000000000071e+00 1.840527454828005949e+00
2.100000000000000089e+00 1.832841762114541639e+00
2.120000000000000107e+00 1.825157301144121336e+00
2.140000000000000124e+00 1.817474707836870707e+00
2.160000000000000142e+00 1.809794603203276564e+00
2.180000000000000160e+00 1.802117604101901582e+00
2.200000000000000178e+00 1.794444312512222028e+00
2.220000000000000195e+00 1.786775326274648412e+00
2.240000000000000213e+00 1.779111228398929212e+00
2.260000000000000231e+00 1.771452597778950588e+00
2.280000000000000249e+00 1.763799998543417402e+00
2.300000000000000266e+00 1.756153990737846060e+00
2.319999999999999840e+00 1.748515119724364464e+00
2.339999999999999858e+00 1.740883926823257433e+00
2.359999999999999876e+00 1.733260938768721893e+00
2.379999999999999893e+00 1.725646678302302117e+00
2.399999999999999911e+00 1.718041653691520620e+00
2.419999999999999929e+00 1.710446369267489164e+00
2.439999999999999947e+00 1.702861315013386445e+00
2.459999999999999964e+00 1.695286977038474197e+00
2.479999999999999982e+00 1.687723827243461372e+00
2.500000000000000000e+00 1.680172333723144229e+00
2.520000000000000018e+00 1.672632950515718697e+00
2.540000000000000036e+00 1.665106127926227586e+00
2.560000000000000053e+00 1.657592302366959203e+00
2.580000000000000071e+00 1.650091906593839086e+00
2.600000000000000089e+00 1.642605359645095353e+00
2.620000000000000107e+00 1.635133076982714373e+00
2.640000000000000124e+00 1.627675460536615715e+00
2.660000000000000142e+00 1.620232908743252764e+00
2.680000000000000160e+00 1.612805806702583666e+00
2.700000000000000178e+00 1.605394536105873016e+00
2.720000000000000195e+00 1.597999465512797146e+00
2.740000000000000213e+00 1.590620960160479713e+00
2.760000000000000231e+00 1.583259372368133411e+00
2.780000000000000249e+00 1.575915051219318741e+00
2.800000000000000266e+00 1.568588333101552212e+00
2.819999999999999840e+00 1.561279551253803133e+00
2.839999999999999858e+00 1.553989026448530764e+00
2.859999999999999876e+00 1.546717076396380230e+00
2.879999999999999893e+00 1.539464006578186384e+00
2.899999999999999911e+00 1.532230119498804832e+00
2.919999999999999929e+00 1.525015705676680655e+00
2.939999999999999947e+00 1.517821052738700605e+00
2.959999999999999964e+00 1.510646436574955231e+00
2.979999999999999982e+00 1.503492130266543825e+00
3.000000000000000000e+00 1.496358395413165399e+00
3.020000000000000018e+00 1.489245490885770407e+00
3.040000000000000036e+00 1.482153664334684873e+00
3.060000000000000053e+00 1.475083160758966505e+00
3.080000000000000071e+00 1.468034214202830645e+00
3.100000000000000089e+00 1.461007056133546422e+00
3.120000000000000107e+00 1.454001907333941190e+00
3.140000000000000124e+00 1.447018986080685243e+00
3.160000000000000142e+00 1.440058500240710027e+00
3.180000000000000160e+00 1.433120655241678865e+00
3.200000000000000178e+00 1.426205646380178660e+00
3.220000000000000195e+00 1.419313666576212052e+00
3.240000000000000213e+00 1.412444898901032531e+00
3.260000000000000231e+00 1.405599524107444598e+00
3.280000000000000249e+00 1.398777713385240595e+00
3.300000000000000266e+00 1.391979635659074344e+00
3.320000000000000284e+00 1.385205450579461761e+00
3.339999999999999858e+00 1.378455315579990348e+00
3.359999999999999876e+00 1.371729379111890967e+00
3.379999999999999893e+00 1.365027787452328223e+00
3.399999999999999911e+00 1.358350678190590299e+00
3.419999999999999929e+00 1.351698186779174415e+00
3.439999999999999947e+00 1.345070440279654944e+00
3.459999999999999964e+00 1.338467563648330083e+00
3.479999999999999982e+00 1.331889673749828695e+00
3.500000000000000000e+00 1.325336885369013951e+00
3.520000000000000018e+00 1.318809305500482365e+00
3.540000000000000036e+00 1.312307039078434157e+00
3.560000000000000053e+00 1.305830183550190204e+00
3.580000000000000071e+00 1.299378834315691567e+00
3.600000000000000089e+00 1.292953079593264443e+00
3.620000000000000107e+00 1.286553005560425067e+00
3.640000000000000124e+00 1.280178691520050371e+00
3.660000000000000142e+00 1.273830214734171351e+00
3.680000000000000160e+00 1.267507645898808821e+00
3.700000000000000178e+00 1.261211053662371517e+00
3.720000000000000195e+00 1.254940500417423443e+00
3.740000000000000213e+00 1.248696046495334722e+00
3.760000000000000231e+00 1.242477746283245033e+00
3.780000000000000249e+00 1.236285652086615450e+00
3.800000000000000266e+00 1.230119810579677120e+00
3.820000000000000284e+00 1.223980266327483690e+00
3.839999999999999858e+00 1.217867058578210093e+00
3.859999999999999876e+00 1.211780224436294295e+00
3.879999999999999893e+00 1.205719796004926181e+00
3.899999999999999911e+00 1.199685803201853362e+00
3.919999999999999929e+00 1.193678271260470325e+00
3.939999999999999947e+00 1.187697223179861705e+00
3.959999999999999964e+00 1.181742677592857227e+00
3.979999999999999982e+00 1.175814650841877418e+00
4.000000000000000000e+00 1.169913155222414458e+00
4.020000000000000462e+00 1.164038200676203116e+00
4.040000000000000036e+00 1.158189793418543001e+00
4.060000000000000497e+00 1.152367937240353912e+00
4.080000000000000071e+00 1.146572632527812274e+00
4.099999999999999645e+00 1.140803877164810798e+00
4.120000000000000107e+00 1.135061665953366106e+00
4.139999999999999680e+00 1.129345991107977065e+00
4.160000000000000142e+00 1.123656842085362095e+00
4.179999999999999716e+00 1.117994205662191209e+00
4.200000000000000178e+00 1.112358066182640881e+00
4.219999999999999751e+00 1.106748405210986608e+00
4.240000000000000213e+00 1.101165202205559579e+00
4.259999999999999787e+00 1.095608433737643495e+00
4.280000000000000249e+00 1.090078074600362656e+00
4.299999999999999822e+00 1.084574096585345870e+00
4.320000000000000284e+00 1.079096470035172839e+00
4.339999999999999858e+00 1.073645162169185374e+00
4.360000000000000320e+00 1.068220139088126741e+00
4.379999999999999893e+00 1.062821363640487515e+00
4.400000000000000355e+00 1.057448797887973191e+00
4.419999999999999929e+00 1.052102400503816426e+00
4.440000000000000391e+00 1.046782129707663600e+00
4.459999999999999964e+00 1.041487940187239669e+00
4.480000000000000426e+00 1.036219786511388241e+00
4.500000000000000000e+00 1.030977619566371573e+00
4.520000000000000462e+00 1.025761390455775190e+00
4.540000000000000036e+00 1.020571046442803276e+00
4.560000000000000497e+00 1.015406535345752870e+00
4.580000000000000071e+00 1.010267800977612707e+00
4.600000000000000533e+00 1.005154788045850234e+00
4.620000000000000107e+00 1.000067437080591093e+00
4.639999999999999680e+00 9.950056898475237999e-01
4.660000000000000142e+00 9.899694837559149807e-01
4.679999999999999716e+00 9.849587577933968108e-01
4.700000000000000178e+00 9.799734464050662286e-01
4.719999999999999751e+00 9.750134859590144920e-01
4.740000000000000213e+00 9.700788080876993069e-01
4.759999999999999787e+00 9.651693466930524323e-01
4.780000000000000249e+00 9.602850307413178799e-01
4.799999999999999822e+00 9.554257918166381147e-01
4.820000000000000284e+00 9.505915563605147334e-01
4.839999999999999858e+00 9.457822537827502707e-01
4.860000000000000320e+00 9.409978081366818792e-01
4.879999999999999893e+00 9.362381467964162596e-01
4.900000000000000355e+00 9.315031915589472300e-01
4.919999999999999929e+00 9.267928678966328437e-01
4.940000000000000391e+00 9.221070954772675465e-01
4.959999999999999964e+00 9.174457980008099423e-01
4.980000000000000426e+00 9.128088931284608076e-01
5.000000000000000000e+00 9.081963029126455256e-01
5.020000000000000462e+00 9.036079431261132555e-01
5.040000000000000036e+00 8.990437342942463328e-01
5.060000000000000497e+00 8.945035904151633632e-01
5.080000000000000071e+00 8.899874306034205595e-01
5.100000000000000533e+00 8.854951671920789913e-01
5.120000000000000107e+00 8.810267179969314411e-01
5.139999999999999680e+00 8.765819937914415272e-01
5.160000000000000142e+00 8.721609112006456499e-01
5.179999999999999716e+00 8.677633795398427274e-01
5.200000000000000178e+00 8.633893143473720944e-01
5.219999999999999751e+00 8.590386235779057245e-01
5.240000000000000213e+00 8.547112217833094938e-01
5.259999999999999787e+00 8.504070156513364731e-01
5.280000000000000249e+00 8.461259188438623458e-01
5.299999999999999822e+00 8.418678368717579241e-01
5.320000000000000284e+00 8.376326825997610914e-01
5.339999999999999858e+00 8.334203604482696148e-01
5.360000000000000320e+00 8.292307825742216698e-01
5.379999999999999893e+00 8.250638523904662014e-01
5.400000000000000355e+00 8.209194814320436295e-01
5.419999999999999929e+00 8.167975721837720249e-01
5.440000000000000391e+00 8.126980356413732176e-01
5.459999999999999964e+00 8.086207734378721979e-01
5.480000000000000426e+00 8.045656961090182913e-01
5.500000000000000000e+00 8.005327045090633309e-01
5.520000000000000462e+00 7.965217087900087201e-01
5.540000000000000036e+00 7.925326090972509840e-01
5.560000000000000497e+00 7.885653152722358339e-01
5.580000000000000071e+00 7.846197268184109674e-01
5.600000000000000533e+00 7.806957533369002222e-01
5.620000000000000107e+00 7.767932937532009419e-01
5.639999999999999680e+00 7.729122574955173963e-01
5.660000000000000142e+00 7.690525429725438844e-01
5.679999999999999716e+00 7.652140595042078441e-01
5.700000000000000178e+00 7.613967050408159132e-01
5.719999999999999751e+00 7.576003888559867949e-01
5.740000000000000213e+00 7.538250084974060794e-01
5.759999999999999787e+00 7.500704732517652351e-01
5.780000000000000249e+00 7.463366803173173691e-01
5.799999999999999822e+00 7.426235390507162082e-01
5.820000000000000284e+00 7.389309463514901477e-01
5.839999999999999858e+00 7.352588117007202717e-01
5.860000000000000320e+00 7.316070317475072970e-01
5.879999999999999893e+00 7.279755161494966265e-01
5.900000000000000355e+00 7.243641613513330801e-01
5.919999999999999929e+00 7.207728772370985970e-01
5.940000000000000391e+00 7.172015600907054589e-01
5.959999999999999964e+00 7.136501200703745385e-01
5.980000000000000426e+00 7.101184533408261279e-01
6.000000000000000000e+00 7.066064703800108981e-01
6.020000000000000462e+00 7.031140672729073726e-01
6.040000000000000036e+00 6.996411548607522901e-01
6.060000000000000497e+00 6.961876291861995858e-01
6.080000000000000071e+00 6.927534014953761199e-01
6.100000000000000533e+00 6.893383678240533330e-01
6.120000000000000107e+00 6.859424398629663244e-01
6.140000000000000568e+00 6.825655136745699680e-01
6.160000000000000142e+00 6.792075014320833048e-01
6.179999999999999716e+00 6.758682992563815883e-01
6.200000000000000178e+00 6.725478198393044504e-01
6.219999999999999751e+00 6.692459593901055603e-01
6.240000000000000213e+00 6.659626311536818166e-01
6.259999999999999787e+00 6.626977314559456822e-01
6.280000000000000249e+00 6.594511741276563033e-01
6.299999999999999822e+00 6.562228556379992028e-01
6.320000000000000284e+00 6.530126904348323436e-01
6.339999999999999858e+00 6.498205751556700438e-01
6.360000000000000320e+00 6.466464248951864224e-01
6.379999999999999893e+00 6.434901364827425585e-01
6.400000000000000355e+00 6.403516256881011115e-01
6.419999999999999929e+00 6.372307895545141765e-01
6.440000000000000391e+00 6.341275445537041255e-01
6.459999999999999964e+00 6.310417879634495630e-01
6.480000000000000426e+00 6.279734369829526042e-01
6.500000000000000000e+00 6.249223891437890588e-01
6.520000000000000462e+00 6.218885623968725129e-01
6.540000000000000036e+00 6.188718545455242914e-01
6.560000000000000497e+00 6.158721843153527331e-01
6.580000000000000071e+00 6.128894497981205447e-01
6.600000000000000533e+00 6.099235705159282706e-01
6.620000000000000107e+00 6.069744448644406321e-01
6.640000000000000568e+00 6.040419931828969746e-01
6.660000000000000142e+00 6.011261141851692580e-01
6.679999999999999716e+00 5.982267290471768861e-01
6.700000000000000178e+00 5.953437368141638597e-01
6.719999999999999751e+00 5.924770595172248466e-01
6.740000000000000213e+00 5.896265965450616653e-01
6.759999999999999787e+00 5.867922708014191580e-01
6.780000000000000249e+00 5.839739820294977957e-01
6.799999999999999822e+00 5.811716540221985028e-01
6.820000000000000284e+00 5.783851868872548208e-01
6.839999999999999858e+00 5.756145053223028496e-01
6.860000000000000320e+00 5.728595098086796122e-01
6.879999999999999893e+00 5.701201259634397500e-01
6.900000000000000355e+00 5.673962546496689185e-01
6.919999999999999929e+00 5.646878224176749006e-01
6.940000000000000391e+00 5.619947305195444054e-01
6.959999999999999964e+00 5.593169064518435096e-01
6.980000000000000426e+00 5.566542518620627433e-01
7.000000000000000000e+00 5.540066952052653537e-01
7.020000000000000462e+00 5.513741385299121278e-01
7.040000000000000036e+00 5.487565112610527374e-01
7.060000000000000497e+00 5.461537158529038427e-01
7.080000000000000071e+00 5.435656827112687051e-01
7.100000000000000533e+00 5.409923147001483024e-01
7.120000000000000107e+00 5.384335432161913015e-01
7.140000000000000568e+00 5.358892715364782511e-01
7.160000000000000142e+00 5.333594320579471137e-01
7.179999999999999716e+00 5.308439284733538210e-01
7.200000000000000178e+00 5.283426941887400252e-01
7.219999999999999751e+00 5.258556333144742689e-01
7.240000000000000213e+00 5.233826802739260931e-01
7.259999999999999787e+00 5.209237395963588479e-01
7.280000000000000249e+00 5.184787467301323893e-01
7.299999999999999822e+00 5.160476066240727855e-01
7.320000000000000284e+00 5.136302557586542861e-01
7.339999999999999858e+00 5.112265995023481668e-01
7.360000000000000320e+00 5.088365753743531172e-01
7.379999999999999893e+00 5.064600891622985657e-01
7.400000000000000355e+00 5.040970794302279678e-01
7.419999999999999929e+00 5.017474523838980627e-01
7.440000000000000391e+00 4.994111476378648162e-01
7.459999999999999964e+00 4.970880718144569665e-01
7.480000000000000426e+00 4.947781655839648685e-01
7.500000000000000000e+00 4.924813359832394544e-01
7.520000000000000462e+00 4.901975247431076266e-01
7.540000000000000036e+00 4.879266393124273571e-01
7.560000000000000497e+00 4.856686224869696811e-01
7.580000000000000071e+00 4.834233821246036178e-01
7.600000000000000533e+00 4.811908620900781086e-01
7.620000000000000107e+00 4.789709706468672779e-01
7.640000000000000568e+00 4.767636527323813045e-01
7.660000000000000142e+00 4.745688170118438909e-01
7.679999999999999716e+00 4.723864094986752749e-01
7.700000000000000178e+00 4.702163392556180099e-01
7.719999999999999751e+00 4.680585533751219218e-01
7.740000000000000213e+00 4.659129613128269454e-01
7.759999999999999787e+00 4.637795112429472510e-01
7.780000000000000249e+00 4.616581130090293694e-01
7.799999999999999822e+00 4.595487158695009677e-01
7.820000000000000284e+00 4.574512300504732232e-01
7.839999999999999858e+00 4.553656058967687215e-01
7.860000000000000320e+00 4.532917540113972632e-01
7.879999999999999893e+00 4.512296258275101946e-01
