# Electrodo circular de radio 6 mm y espesor 710.0 um.
# Volumen de simulacion (convencion z,y,x):
# N: 1024 x 1024 x 1024 | voxelSize:  0.02mm x 0.02mm x 0.02mm | FOV:  20.48mm x 20.48mm x 20.48mm
# 
# z [mm]		 delta[ppm]
0.000000000000000000e+00 2.778532329130484424e+00
2.000000000000000042e-02 2.773335717603826911e+00
4.000000000000000083e-02 2.767992255939082380e+00
5.999999999999999778e-02 2.762503849778418452e+00
8.000000000000000167e-02 2.756872402222223517e+00
1.000000000000000056e-01 2.751099840493498316e+00
1.199999999999999956e-01 2.745188129574527736e+00
1.400000000000000133e-01 2.739139269206446681e+00
1.600000000000000033e-01 2.732955289907261776e+00
1.799999999999999933e-01 2.726638255338157624e+00
2.000000000000000111e-01 2.720190255508616151e+00
2.200000000000000011e-01 2.713613410825125083e+00
2.399999999999999911e-01 2.706909864411965572e+00
2.600000000000000089e-01 2.700081786882572388e+00
2.800000000000000266e-01 2.693131368022236849e+00
2.999999999999999889e-01 2.686060822108799595e+00
3.200000000000000067e-01 2.678872379131319370e+00
3.400000000000000244e-01 2.671568290569516169e+00
3.599999999999999867e-01 2.664150820199657321e+00
3.800000000000000044e-01 2.656622250295817889e+00
4.000000000000000222e-01 2.648984872080565101e+00
4.199999999999999845e-01 2.641240992322683834e+00
4.400000000000000022e-01 2.633392923456423063e+00
4.600000000000000200e-01 2.625442990563045864e+00
4.799999999999999822e-01 2.617393521187915351e+00
5.000000000000000000e-01 2.609246852696196495e+00
5.200000000000000178e-01 2.601005321803119497e+00
5.400000000000000355e-01 2.592671272298185059e+00
5.600000000000000533e-01 2.584247044307530938e+00
5.799999999999999600e-01 2.575734982381668647e+00
5.999999999999999778e-01 2.567137424501614529e+00
6.199999999999999956e-01 2.558456710526523459e+00
6.400000000000000133e-01 2.549695170957567925e+00
6.600000000000000311e-01 2.540855135741661996e+00
6.800000000000000488e-01 2.531938922802722480e+00
7.000000000000000666e-01 2.522948847197981070e+00
7.199999999999999734e-01 2.513887209427729807e+00
7.399999999999999911e-01 2.504756304940304545e+00
7.600000000000000089e-01 2.495558412228485956e+00
7.800000000000000266e-01 2.486295802679052702e+00
8.000000000000000444e-01 2.476970728465047511e+00
8.200000000000000622e-01 2.467585432735263762e+00
8.399999999999999689e-01 2.458142137309423880e+00
8.599999999999999867e-01 2.448643053202633091e+00
8.800000000000000044e-01 2.439090368131252351e+00
9.000000000000000222e-01 2.429486257366764601e+00
9.200000000000000400e-01 2.419832871058483104e+00
9.400000000000000577e-01 2.410132345410922028e+00
9.599999999999999645e-01 2.400386789829968226e+00
9.799999999999999822e-01 2.390598298417286216e+00
1.000000000000000000e+00 2.380768936945387715e+00
1.020000000000000018e+00 2.370900754662144561e+00
1.040000000000000036e+00 2.360995771100572238e+00
1.060000000000000053e+00 2.351055988186096624e+00
1.080000000000000071e+00 2.341083376885841449e+00
1.100000000000000089e+00 2.331079889610912392e+00
1.120000000000000107e+00 2.321047446710339912e+00
1.140000000000000124e+00 2.310987949160200561e+00
1.159999999999999920e+00 2.300903264906603685e+00
1.179999999999999938e+00 2.290795241833130547e+00
1.199999999999999956e+00 2.280665693957562468e+00
1.219999999999999973e+00 2.270516414668791505e+00
1.239999999999999991e+00 2.260349162781342791e+00
1.260000000000000009e+00 2.250165676032652051e+00
1.280000000000000027e+00 2.239967656999761303e+00
1.300000000000000044e+00 2.229756786847552075e+00
1.320000000000000062e+00 2.219534711111531333e+00
1.340000000000000080e+00 2.209303053687410312e+00
1.360000000000000098e+00 2.199063402484200402e+00
1.380000000000000115e+00 2.188817323645305457e+00
1.400000000000000133e+00 2.178566347075808540e+00
1.419999999999999929e+00 2.168311980885097690e+00
1.439999999999999947e+00 2.158055696792533062e+00
1.459999999999999964e+00 2.147798944781482700e+00
1.479999999999999982e+00 2.137543138387304698e+00
1.500000000000000000e+00 2.127289669552572704e+00
1.520000000000000018e+00 2.117039893801656358e+00
1.540000000000000036e+00 2.106795145286781246e+00
1.560000000000000053e+00 2.096556721853334082e+00
1.580000000000000071e+00 2.086325900266397859e+00
1.600000000000000089e+00 2.076103921171193356e+00
1.620000000000000107e+00 2.065892004489680023e+00
1.640000000000000124e+00 2.055691334280476124e+00
1.660000000000000142e+00 2.045503074295101698e+00
1.679999999999999938e+00 2.035328352742030944e+00
1.699999999999999956e+00 2.025168277992152266e+00
1.719999999999999973e+00 2.015023923251596294e+00
1.739999999999999991e+00 2.004896342405971588e+00
1.760000000000000009e+00 1.994786554606951423e+00
1.780000000000000027e+00 1.984695560244878809e+00
1.800000000000000044e+00 1.974624325454072737e+00
1.820000000000000062e+00 1.964573798203466781e+00
1.840000000000000080e+00 1.954544892725927685e+00
1.860000000000000098e+00 1.944538505716597365e+00
1.880000000000000115e+00 1.934555500691562901e+00
1.900000000000000133e+00 1.924596724283673455e+00
1.919999999999999929e+00 1.914662990536166953e+00
1.939999999999999947e+00 1.904755097285798282e+00
1.959999999999999964e+00 1.894873810397129876e+00
1.979999999999999982e+00 1.885019880222832400e+00
2.000000000000000000e+00 1.875194025784646890e+00
2.020000000000000018e+00 1.865396951300831940e+00
2.040000000000000036e+00 1.855629330319846559e+00
2.060000000000000053e+00 1.845891822304993601e+00
2.080000000000000071e+00 1.836185056727156928e+00
2.100000000000000089e+00 1.826509649696776316e+00
2.120000000000000107e+00 1.816866188022063122e+00
2.140000000000000124e+00 1.807255245878496730e+00
2.160000000000000142e+00 1.797677368839216028e+00
2.180000000000000160e+00 1.788133090572312067e+00
2.200000000000000178e+00 1.778622916850158164e+00
2.220000000000000195e+00 1.769147342264872913e+00
2.240000000000000213e+00 1.759706834223601302e+00
2.260000000000000231e+00 1.750301849672574628e+00
2.280000000000000249e+00 1.740932819085422523e+00
2.300000000000000266e+00 1.731600163186371111e+00
2.319999999999999840e+00 1.722304276938882328e+00
2.339999999999999858e+00 1.713045546258572749e+00
2.359999999999999876e+00 1.703824332009575393e+00
2.379999999999999893e+00 1.694640986697847129e+00
2.399999999999999911e+00 1.685495838482813369e+00
2.419999999999999929e+00 1.676389207841804563e+00
2.439999999999999947e+00 1.667321391604640102e+00
2.459999999999999964e+00 1.658292679579995488e+00
2.479999999999999982e+00 1.649303338620728754e+00
2.500000000000000000e+00 1.640353629203051833e+00
2.520000000000000018e+00 1.631443789530487853e+00
2.540000000000000036e+00 1.622574052056768856e+00
2.560000000000000053e+00 1.613744627636454210e+00
2.580000000000000071e+00 1.604955721982535444e+00
2.600000000000000089e+00 1.596207519871798430e+00
2.620000000000000107e+00 1.587500201528185606e+00
2.640000000000000124e+00 1.578833926891110906e+00
2.660000000000000142e+00 1.570208851915663173e+00
2.680000000000000160e+00 1.561625112912141011e+00
2.700000000000000178e+00 1.553082842754230919e+00
2.720000000000000195e+00 1.544582155298135362e+00
2.740000000000000213e+00 1.536123161489893363e+00
2.760000000000000231e+00 1.527705953872529054e+00
2.780000000000000249e+00 1.519330622583733081e+00
2.800000000000000266e+00 1.510997239959516625e+00
2.819999999999999840e+00 1.502705876413530817e+00
2.839999999999999858e+00 1.494456585145749195e+00
2.859999999999999876e+00 1.486249417894720981e+00
2.879999999999999893e+00 1.478084409759893303e+00
2.899999999999999911e+00 1.469961594818116835e+00
2.919999999999999929e+00 1.461880991068255531e+00
2.939999999999999947e+00 1.453842615903279789e+00
2.959999999999999964e+00 1.445846471185861182e+00
2.979999999999999982e+00 1.437892558567454682e+00
3.000000000000000000e+00 1.429980864703569443e+00
3.020000000000000018e+00 1.422111376411258510e+00
3.040000000000000036e+00 1.414284066032817089e+00
3.060000000000000053e+00 1.406498906423112150e+00
3.080000000000000071e+00 1.398755856470485837e+00
3.100000000000000089e+00 1.391054875905370469e+00
3.120000000000000107e+00 1.383395910987195165e+00
3.140000000000000124e+00 1.375778909125773941e+00
3.160000000000000142e+00 1.368203804743025165e+00
3.180000000000000160e+00 1.360670533698612017e+00
3.200000000000000178e+00 1.353179019335307931e+00
3.220000000000000195e+00 1.345729186700433733e+00
3.240000000000000213e+00 1.338320948783662701e+00
3.260000000000000231e+00 1.330954220525786713e+00
3.280000000000000249e+00 1.323628905257834054e+00
3.300000000000000266e+00 1.316344908488703780e+00
3.320000000000000284e+00 1.309102124554418101e+00
3.339999999999999858e+00 1.301900450176199042e+00
3.359999999999999876e+00 1.294739771328708100e+00
3.379999999999999893e+00 1.287619976560141488e+00
3.399999999999999911e+00 1.280540944088299771e+00
3.419999999999999929e+00 1.273502554874274439e+00
3.439999999999999947e+00 1.266504679955188228e+00
3.459999999999999964e+00 1.259547193263125697e+00
3.479999999999999982e+00 1.252629959203324317e+00
3.500000000000000000e+00 1.245752845209948001e+00
3.520000000000000018e+00 1.238915709578601421e+00
3.540000000000000036e+00 1.232118413750586061e+00
3.560000000000000053e+00 1.225360810408493206e+00
3.580000000000000071e+00 1.218642755480585427e+00
3.600000000000000089e+00 1.211964096508315825e+00
3.620000000000000107e+00 1.205324684362482746e+00
3.640000000000000124e+00 1.198724361891413182e+00
3.660000000000000142e+00 1.192162975340576914e+00
3.680000000000000160e+00 1.185640363290225929e+00
3.700000000000000178e+00 1.179156367770124891e+00
3.720000000000000195e+00 1.172710823495390242e+00
3.740000000000000213e+00 1.166303568668040969e+00
3.760000000000000231e+00 1.159934434519759527e+00
3.780000000000000249e+00 1.153603255791984195e+00
3.800000000000000266e+00 1.147309860594280195e+00
3.820000000000000284e+00 1.141054080554678274e+00
3.839999999999999858e+00 1.134835741002387266e+00
3.859999999999999876e+00 1.128654670780095293e+00
3.879999999999999893e+00 1.122510692759667084e+00
3.899999999999999911e+00 1.116403633308145515e+00
3.919999999999999929e+00 1.110333313145119849e+00
3.939999999999999947e+00 1.104299556454166886e+00
3.959999999999999964e+00 1.098302182090492130e+00
3.979999999999999982e+00 1.092341012329570482e+00
4.000000000000000000e+00 1.086415864433712741e+00
4.020000000000000462e+00 1.080526559029648670e+00
4.040000000000000036e+00 1.074672912042580419e+00
4.060000000000000497e+00 1.068854742694509419e+00
4.080000000000000071e+00 1.063071865814358530e+00
4.099999999999999645e+00 1.057324099448833987e+00
4.120000000000000107e+00 1.051611257557125478e+00
4.139999999999999680e+00 1.045933157226096144e+00
4.160000000000000142e+00 1.040289611758142385e+00
4.179999999999999716e+00 1.034680437482505599e+00
4.200000000000000178e+00 1.029105447244746951e+00
4.219999999999999751e+00 1.023564456806018708e+00
4.240000000000000213e+00 1.018057278742679150e+00
4.259999999999999787e+00 1.012583728425322294e+00
4.280000000000000249e+00 1.007143618336969526e+00
4.299999999999999822e+00 1.001736763623712889e+00
4.320000000000000284e+00 9.963629768399513420e-01
4.339999999999999858e+00 9.910220730624617058e-01
4.360000000000000320e+00 9.857138650711220196e-01
4.379999999999999893e+00 9.804381680182379100e-01
4.400000000000000355e+00 9.751947950531686393e-01
4.419999999999999929e+00 9.699835615388077148e-01
4.440000000000000391e+00 9.648042811284375242e-01
4.459999999999999964e+00 9.596567695212381288e-01
4.480000000000000426e+00 9.545408409998059618e-01
4.500000000000000000e+00 9.494563117165010224e-01
4.520000000000000462e+00 9.444029966999889503e-01
4.540000000000000036e+00 9.393807126643293204e-01
4.560000000000000497e+00 9.343892754928714295e-01
4.580000000000000071e+00 9.294285025619684060e-01
4.600000000000000533e+00 9.244982107105423896e-01
4.620000000000000107e+00 9.195982180703021758e-01
4.639999999999999680e+00 9.147283425293272208e-01
4.660000000000000142e+00 9.098884030606677609e-01
4.679999999999999716e+00 9.050782186882221358e-01
4.700000000000000178e+00 9.002976093056164197e-01
4.719999999999999751e+00 8.955463951527030675e-01
4.740000000000000213e+00 8.908243971165880071e-01
4.759999999999999787e+00 8.861314367270223258e-01
4.780000000000000249e+00 8.814673359314684209e-01
4.799999999999999822e+00 8.768319176176909702e-01
4.820000000000000284e+00 8.722250048547448564e-01
4.839999999999999858e+00 8.676464219510031661e-01
4.860000000000000320e+00 8.630959931529770257e-01
4.879999999999999893e+00 8.585735442470503465e-01
4.900000000000000355e+00 8.540789007080206163e-01
4.919999999999999929e+00 8.496118898527855734e-01
4.940000000000000391e+00 8.451723384304798969e-01
4.959999999999999964e+00 8.407600753363941859e-01
4.980000000000000426e+00 8.363749286355884882e-01
5.000000000000000000e+00 8.320167288452748888e-01
5.020000000000000462e+00 8.276853053837813778e-01
5.040000000000000036e+00 8.233804904296747607e-01
5.060000000000000497e+00 8.191021147879383735e-01
5.080000000000000071e+00 8.148500123340676193e-01
5.100000000000000533e+00 8.106240152893299244e-01
5.120000000000000107e+00 8.064239592581053939e-01
5.139999999999999680e+00 8.022496779040695358e-01
5.160000000000000142e+00 7.981010085890356542e-01
5.179999999999999716e+00 7.939777864418932074e-01
5.200000000000000178e+00 7.898798506072386427e-01
5.219999999999999751e+00 7.858070376988975925e-01
5.240000000000000213e+00 7.817591886665997691e-01
5.259999999999999787e+00 7.777361416258906646e-01
5.280000000000000249e+00 7.737377393511657431e-01
5.299999999999999822e+00 7.697638214737740903e-01
5.320000000000000284e+00 7.658142326096684105e-01
5.339999999999999858e+00 7.618888139174986307e-01
5.360000000000000320e+00 7.579874118692080387e-01
5.379999999999999893e+00 7.541098691598566717e-01
5.400000000000000355e+00 7.502560341294958191e-01
5.419999999999999929e+00 7.464257510164510334e-01
5.440000000000000391e+00 7.426188700388360875e-01
5.459999999999999964e+00 7.388352369830175626e-01
5.480000000000000426e+00 7.350747039531061455e-01
5.500000000000000000e+00 7.313371182863044329e-01
5.520000000000000462e+00 7.276223339787750710e-01
5.540000000000000036e+00 7.239301999195283388e-01
5.560000000000000497e+00 7.202605720010814006e-01
5.580000000000000071e+00 7.166133006635098113e-01
5.600000000000000533e+00 7.129882436983332461e-01
5.620000000000000107e+00 7.093852530943763890e-01
5.639999999999999680e+00 7.058041885433027351e-01
5.660000000000000142e+00 7.022449035788589367e-01
5.679999999999999716e+00 6.987072597925796380e-01
5.700000000000000178e+00 6.951911122579399471e-01
5.719999999999999751e+00 6.916963244647557074e-01
5.740000000000000213e+00 6.882227530197555510e-01
5.759999999999999787e+00 6.847702633082249912e-01
5.780000000000000249e+00 6.813387134624774299e-01
5.799999999999999822e+00 6.779279707593373061e-01
5.820000000000000284e+00 6.745378948479348047e-01
5.839999999999999858e+00 6.711683548916507203e-01
5.860000000000000320e+00 6.678192120466394099e-01
5.879999999999999893e+00 6.644903373569052141e-01
5.900000000000000355e+00 6.611815934748864754e-01
5.919999999999999929e+00 6.578928533183843186e-01
5.940000000000000391e+00 6.546239810245157997e-01
5.959999999999999964e+00 6.513748513772463777e-01
5.980000000000000426e+00 6.481453299859502026e-01
6.000000000000000000e+00 6.449352934923733294e-01
6.020000000000000462e+00 6.417446089650008512e-01
6.040000000000000036e+00 6.385731548942885638e-01
6.060000000000000497e+00 6.354207997940006791e-01
6.080000000000000071e+00 6.322874239936164820e-01
6.100000000000000533e+00 6.291728974377143180e-01
6.120000000000000107e+00 6.260771022845491585e-01
6.140000000000000568e+00 6.229999098944924985e-01
6.160000000000000142e+00 6.199412042437931758e-01
6.179999999999999716e+00 6.169008580930770425e-01
6.200000000000000178e+00 6.138787572253600056e-01
6.219999999999999751e+00 6.108747757854930960e-01
6.240000000000000213e+00 6.078888013516072775e-01
6.259999999999999787e+00 6.049207094363463488e-01
6.280000000000000249e+00 6.019703894009310607e-01
6.299999999999999822e+00 5.990377181089532321e-01
6.320000000000000284e+00 5.961225866923677286e-01
6.339999999999999858e+00 5.932248733485443459e-01
6.360000000000000320e+00 5.903444709675166324e-01
6.379999999999999893e+00 5.874812590629376885e-01
6.400000000000000355e+00 5.846351322700150677e-01
6.419999999999999929e+00 5.818059714009111705e-01
6.440000000000000391e+00 5.789936728228802787e-01
6.459999999999999964e+00 5.761981186285766166e-01
6.480000000000000426e+00 5.734192069039777406e-01
6.500000000000000000e+00 5.706568210040001699e-01
6.520000000000000462e+00 5.679108607198627423e-01
6.540000000000000036e+00 5.651812106503143474e-01
6.560000000000000497e+00 5.624677722781995515e-01
6.580000000000000071e+00 5.597704314275193660e-01
6.600000000000000533e+00 5.570890912590268362e-01
6.620000000000000107e+00 5.544236388032394158e-01
6.640000000000000568e+00 5.517739788850164473e-01
6.660000000000000142e+00 5.491399997225568930e-01
6.679999999999999716e+00 5.465216077909603731e-01
6.700000000000000178e+00 5.439186924771602927e-01
6.719999999999999751e+00 5.413311618926044400e-01
6.740000000000000213e+00 5.387589065739475380e-01
6.759999999999999787e+00 5.362018362550678985e-01
6.780000000000000249e+00 5.336598426032628240e-01
6.799999999999999822e+00 5.311328369609285005e-01
6.820000000000000284e+00 5.286207121068872139e-01
6.839999999999999858e+00 5.261233809781606929e-01
6.860000000000000320e+00 5.236407374459477460e-01
6.879999999999999893e+00 5.211726960280366194e-01
6.900000000000000355e+00 5.187191516688475224e-01
6.919999999999999929e+00 5.162800204531323711e-01
6.940000000000000391e+00 5.138551983793707700e-01
6.959999999999999964e+00 5.114446030855279712e-01
6.980000000000000426e+00 5.090481316050071703e-01
7.000000000000000000e+00 5.066657031153282142e-01
7.020000000000000462e+00 5.042972156656864158e-01
7.040000000000000036e+00 5.019425899595868490e-01
7.060000000000000497e+00 4.996017250429318213e-01
7.080000000000000071e+00 4.972745431317385778e-01
7.100000000000000533e+00 4.949609442495709888e-01
7.120000000000000107e+00 4.926608521116021544e-01
7.140000000000000568e+00 4.903741677000655330e-01
7.160000000000000142e+00 4.881008162160589969e-01
7.179999999999999716e+00 4.858406995815450213e-01
7.200000000000000178e+00 4.835937444704426769e-01
7.219999999999999751e+00 4.813598537255852627e-01
7.240000000000000213e+00 4.791389554807498619e-01
7.259999999999999787e+00 4.769309534808397477e-01
7.280000000000000249e+00 4.747357773066770426e-01
7.299999999999999822e+00 4.725533315865213524e-01
7.320000000000000284e+00 4.703835473355809094e-01
7.339999999999999858e+00 4.682263300468414435e-01
7.360000000000000320e+00 4.660816121573998494e-01
7.379999999999999893e+00 4.639493000064269235e-01
7.400000000000000355e+00 4.618293274405762538e-01
7.419999999999999929e+00 4.597216016267519634e-01
7.440000000000000391e+00 4.576260578090144415e-01
7.459999999999999964e+00 4.555426039636447655e-01
7.480000000000000426e+00 4.534711767201340948e-01
7.500000000000000000e+00 4.514116848458823994e-01
7.520000000000000462e+00 4.493640663440175986e-01
7.540000000000000036e+00 4.473282307549186210e-01
7.560000000000000497e+00 4.453041174437424865e-01
7.580000000000000071e+00 4.432916367057852525e-01
7.600000000000000533e+00 4.412907292568201689e-01
7.620000000000000107e+00 4.393013061291345944e-01
7.640000000000000568e+00 4.373233093779024250e-01
7.660000000000000142e+00 4.353566507545507114e-01
7.679999999999999716e+00 4.334012736426399170e-01
7.700000000000000178e+00 4.314570904950227881e-01
7.719999999999999751e+00 4.295240460128203486e-01
7.740000000000000213e+00 4.276020533326942430e-01
7.759999999999999787e+00 4.256910584627193184e-01
7.780000000000000249e+00 4.237909752058617308e-01
7.799999999999999822e+00 4.219017508667467498e-01
7.820000000000000284e+00 4.200232998972440734e-01
7.839999999999999858e+00 4.181555708883319400e-01
7.860000000000000320e+00 4.162984789235110727e-01
7.879999999999999893e+00 4.144519738701251121e-01
