# Electrodo circular de radio 6 mm y espesor 710.0 um.
# Volumen de simulacion (convencion z,y,x):
# N: 1024 x 1024 x 1024 | voxelSize:  0.02mm x 0.02mm x 0.02mm | FOV:  20.48mm x 20.48mm x 20.48mm
# 
# z [mm]		 delta[ppm]
0.000000000000000000e+00 2.379962719740268184e+00
2.000000000000000042e-02 2.377500849236218627e+00
4.000000000000000083e-02 2.374964049113696518e+00
5.999999999999999778e-02 2.372352730722955716e+00
8.000000000000000167e-02 2.369667321007849825e+00
1.000000000000000056e-01 2.366908259433343265e+00
1.199999999999999956e-01 2.364075993281437249e+00
1.400000000000000133e-01 2.361170982374362293e+00
1.600000000000000033e-01 2.358193694997529288e+00
1.799999999999999933e-01 2.355144611563254387e+00
2.000000000000000111e-01 2.352024220716872449e+00
2.200000000000000011e-01 2.348833023015458821e+00
2.399999999999999911e-01 2.345571526759883341e+00
2.600000000000000089e-01 2.342240251900689518e+00
2.800000000000000266e-01 2.338839725659666691e+00
2.999999999999999889e-01 2.335370486638884469e+00
3.200000000000000067e-01 2.331833080223284060e+00
3.400000000000000244e-01 2.328228062886705807e+00
3.599999999999999867e-01 2.324555997399783358e+00
3.800000000000000044e-01 2.320817457322534860e+00
4.000000000000000222e-01 2.317013022016670476e+00
4.199999999999999845e-01 2.313143281320523492e+00
4.400000000000000022e-01 2.309208830377320165e+00
4.600000000000000200e-01 2.305210274487173194e+00
4.799999999999999822e-01 2.301148223752422339e+00
5.000000000000000000e-01 2.297023298103282318e+00
5.200000000000000178e-01 2.292836121767937829e+00
5.400000000000000355e-01 2.288587328467959203e+00
5.600000000000000533e-01 2.284277555715253261e+00
5.799999999999999600e-01 2.279907450174089689e+00
5.999999999999999778e-01 2.275477661791043271e+00
6.199999999999999956e-01 2.270988849320169756e+00
6.400000000000000133e-01 2.266441674288675490e+00
6.600000000000000311e-01 2.261836806682052892e+00
6.800000000000000488e-01 2.257174918750990855e+00
7.000000000000000666e-01 2.252456690853031684e+00
7.199999999999999734e-01 2.247682805103934811e+00
7.399999999999999911e-01 2.242853951372567600e+00
7.600000000000000089e-01 2.237970820781904457e+00
7.800000000000000266e-01 2.233034111853642756e+00
8.000000000000000444e-01 2.228044523862435788e+00
8.200000000000000622e-01 2.223002763126761039e+00
8.399999999999999689e-01 2.217909536221445155e+00
8.599999999999999867e-01 2.212765556411136370e+00
8.800000000000000044e-01 2.207571536725045469e+00
9.000000000000000222e-01 2.202328196529314219e+00
9.200000000000000400e-01 2.197036254469032723e+00
9.400000000000000577e-01 2.191696435175682023e+00
9.599999999999999645e-01 2.186309462080580523e+00
9.799999999999999822e-01 2.180876064253513658e+00
1.000000000000000000e+00 2.175396969092704857e+00
1.020000000000000018e+00 2.169872909290590623e+00
1.040000000000000036e+00 2.164304615404698762e+00
1.060000000000000053e+00 2.158692822946497447e+00
1.080000000000000071e+00 2.153038264838307736e+00
1.100000000000000089e+00 2.147341678620974470e+00
1.120000000000000107e+00 2.141603798801443137e+00
1.140000000000000124e+00 2.135825364174919194e+00
1.159999999999999920e+00 2.130007110068333542e+00
1.179999999999999938e+00 2.124149775772541826e+00
1.199999999999999956e+00 2.118254096686475130e+00
1.219999999999999973e+00 2.112320811854844216e+00
1.239999999999999991e+00 2.106350656018280976e+00
1.260000000000000009e+00 2.100344367251896660e+00
1.280000000000000027e+00 2.094302678926379446e+00
1.300000000000000044e+00 2.088226327442654906e+00
1.320000000000000062e+00 2.082116044109351805e+00
1.340000000000000080e+00 2.075972562968700696e+00
1.360000000000000098e+00 2.069796612595498075e+00
1.380000000000000115e+00 2.063588924009275072e+00
1.400000000000000133e+00 2.057350222400275097e+00
1.419999999999999929e+00 2.051081235122828250e+00
1.439999999999999947e+00 2.044782683353616459e+00
1.459999999999999964e+00 2.038455290161086175e+00
1.479999999999999982e+00 2.032099772101624069e+00
1.500000000000000000e+00 2.025716847359730899e+00
1.520000000000000018e+00 2.019307227287543860e+00
1.540000000000000036e+00 2.012871624610382604e+00
1.560000000000000053e+00 2.006410744915352318e+00
1.580000000000000071e+00 1.999925294916810925e+00
1.600000000000000089e+00 1.993415973899589799e+00
1.620000000000000107e+00 1.986883482038829030e+00
1.640000000000000124e+00 1.980328511803655100e+00
1.660000000000000142e+00 1.973751756325719198e+00
1.679999999999999938e+00 1.967153900769017305e+00
1.699999999999999956e+00 1.960535630741398139e+00
1.719999999999999973e+00 1.953897623636454028e+00
1.739999999999999991e+00 1.947240557082159373e+00
1.760000000000000009e+00 1.940565100260664311e+00
1.780000000000000027e+00 1.933871922388106679e+00
1.800000000000000044e+00 1.927161684018370957e+00
1.820000000000000062e+00 1.920435045548064323e+00
1.840000000000000080e+00 1.913692658510174560e+00
1.860000000000000098e+00 1.906935174098105312e+00
1.880000000000000115e+00 1.900163234455385819e+00
1.900000000000000133e+00 1.893377481212590974e+00
1.919999999999999929e+00 1.886578546779142052e+00
1.939999999999999947e+00 1.879767062886863682e+00
1.959999999999999964e+00 1.872943651890138783e+00
1.979999999999999982e+00 1.866108935309727102e+00
2.000000000000000000e+00 1.859263525147469842e+00
2.020000000000000018e+00 1.852408032423960904e+00
2.040000000000000036e+00 1.845543058514138357e+00
2.060000000000000053e+00 1.838669203672321784e+00
2.080000000000000071e+00 1.831787058394968692e+00
2.100000000000000089e+00 1.824897211926514995e+00
2.120000000000000107e+00 1.818000243655775838e+00
2.140000000000000124e+00 1.811096731595922771e+00
2.160000000000000142e+00 1.804187243820929210e+00
2.180000000000000160e+00 1.797272346912985430e+00
2.200000000000000178e+00 1.790352597445546756e+00
2.220000000000000195e+00 1.783428550391411127e+00
2.240000000000000213e+00 1.776500750658873473e+00
2.260000000000000231e+00 1.769569741453624445e+00
2.280000000000000249e+00 1.762636055874674090e+00
2.300000000000000266e+00 1.755700225223154165e+00
2.319999999999999840e+00 1.748762770664639143e+00
2.339999999999999858e+00 1.741824211477880135e+00
2.359999999999999876e+00 1.734885056790279823e+00
2.379999999999999893e+00 1.727945813759532934e+00
2.399999999999999911e+00 1.721006979388962854e+00
2.419999999999999929e+00 1.714069048634993431e+00
2.439999999999999947e+00 1.707132506309204878e+00
2.459999999999999964e+00 1.700197835104479083e+00
2.479999999999999982e+00 1.693265507590608454e+00
2.500000000000000000e+00 1.686335994151911821e+00
2.520000000000000018e+00 1.679409755083347333e+00
2.540000000000000036e+00 1.672487248432352303e+00
2.560000000000000053e+00 1.665568922202374180e+00
2.580000000000000071e+00 1.658655222091629966e+00
2.600000000000000089e+00 1.651746583811103841e+00
2.620000000000000107e+00 1.644843440712874916e+00
2.640000000000000124e+00 1.637946216229599239e+00
2.660000000000000142e+00 1.631055331384994700e+00
2.680000000000000160e+00 1.624171197361961028e+00
2.700000000000000178e+00 1.617294222887766919e+00
2.720000000000000195e+00 1.610424806937909237e+00
2.740000000000000213e+00 1.603563345988513023e+00
2.760000000000000231e+00 1.596710226863174320e+00
2.780000000000000249e+00 1.589865833845024223e+00
2.800000000000000266e+00 1.583030541673744906e+00
2.819999999999999840e+00 1.576204722509736644e+00
2.839999999999999858e+00 1.569388739088620088e+00
2.859999999999999876e+00 1.562582951529882358e+00
2.879999999999999893e+00 1.555787710656155731e+00
2.899999999999999911e+00 1.549003364638673830e+00
2.919999999999999929e+00 1.542230252488764330e+00
2.939999999999999947e+00 1.535468710532370995e+00
2.959999999999999964e+00 1.528719066081152267e+00
2.979999999999999982e+00 1.521981643728353539e+00
3.000000000000000000e+00 1.515256759206979664e+00
3.020000000000000018e+00 1.508544725499246120e+00
3.040000000000000036e+00 1.501845846889291458e+00
3.060000000000000053e+00 1.495160424878384076e+00
3.080000000000000071e+00 1.488488752439772300e+00
3.100000000000000089e+00 1.481831119731780166e+00
3.120000000000000107e+00 1.475187808562339109e+00
3.140000000000000124e+00 1.468559097892106591e+00
3.160000000000000142e+00 1.461945258516338830e+00
3.180000000000000160e+00 1.455346558350085751e+00
3.200000000000000178e+00 1.448763257335057064e+00
3.220000000000000195e+00 1.442195612498964330e+00
3.240000000000000213e+00 1.435643873095079126e+00
3.260000000000000231e+00 1.429108285427741043e+00
3.280000000000000249e+00 1.422589088232352195e+00
3.300000000000000266e+00 1.416086517259022681e+00
3.320000000000000284e+00 1.409600800900807194e+00
3.339999999999999858e+00 1.403132164527441716e+00
3.359999999999999876e+00 1.396680826369622652e+00
3.379999999999999893e+00 1.390247001594760778e+00
3.399999999999999911e+00 1.383830898455199021e+00
3.419999999999999929e+00 1.377432722097855944e+00
3.439999999999999947e+00 1.371052670984249655e+00
3.459999999999999964e+00 1.364690940425940635e+00
3.479999999999999982e+00 1.358347719284294097e+00
3.500000000000000000e+00 1.352023193223532260e+00
3.520000000000000018e+00 1.345717541698217223e+00
3.540000000000000036e+00 1.339430940915739221e+00
3.560000000000000053e+00 1.333163561119518725e+00
3.580000000000000071e+00 1.326915569252688831e+00
3.600000000000000089e+00 1.320687126545087908e+00
3.620000000000000107e+00 1.314478390869895819e+00
3.640000000000000124e+00 1.308289514642466678e+00
3.660000000000000142e+00 1.302120646861670616e+00
3.680000000000000160e+00 1.295971931328681492e+00
3.700000000000000178e+00 1.289843508364694635e+00
3.720000000000000195e+00 1.283735513357853408e+00
3.740000000000000213e+00 1.277648078149015820e+00
3.760000000000000231e+00 1.271581329914973857e+00
3.780000000000000249e+00 1.265535392213940957e+00
3.800000000000000266e+00 1.259510384213279988e+00
3.820000000000000284e+00 1.253506421386320735e+00
3.839999999999999858e+00 1.247523615092865024e+00
3.859999999999999876e+00 1.241562072918922288e+00
3.879999999999999893e+00 1.235621898618273207e+00
3.899999999999999911e+00 1.229703192086692543e+00
3.919999999999999929e+00 1.223806049672900409e+00
3.939999999999999947e+00 1.217930563778807151e+00
3.959999999999999964e+00 1.212076823548206006e+00
3.979999999999999982e+00 1.206244914084555919e+00
4.000000000000000000e+00 1.200434917525817990e+00
4.020000000000000462e+00 1.194646911871243278e+00
4.040000000000000036e+00 1.188880972450773177e+00
4.060000000000000497e+00 1.183137170352318579e+00
4.080000000000000071e+00 1.177415574294160772e+00
4.099999999999999645e+00 1.171716248644169900e+00
4.120000000000000107e+00 1.166039255703681388e+00
4.139999999999999680e+00 1.160384653310051917e+00
4.160000000000000142e+00 1.154752497540569411e+00
4.179999999999999716e+00 1.149142839889712997e+00
4.200000000000000178e+00 1.143555730401625725e+00
4.219999999999999751e+00 1.137991214413454744e+00
4.240000000000000213e+00 1.132449336124992323e+00
4.259999999999999787e+00 1.126930134899401637e+00
4.280000000000000249e+00 1.121433649278632760e+00
4.299999999999999822e+00 1.115959912832853673e+00
4.320000000000000284e+00 1.110508958630311627e+00
4.339999999999999858e+00 1.105080814626705044e+00
4.360000000000000320e+00 1.099675508598208173e+00
4.379999999999999893e+00 1.094293063062013127e+00
4.400000000000000355e+00 1.088933500681229072e+00
4.419999999999999929e+00 1.083596838707841625e+00
4.440000000000000391e+00 1.078283094868205394e+00
4.459999999999999964e+00 1.072992281319615993e+00
4.480000000000000426e+00 1.067724411025224862e+00
4.500000000000000000e+00 1.062479491215316152e+00
4.520000000000000462e+00 1.057257530260499845e+00
4.540000000000000036e+00 1.052058530628836586e+00
4.560000000000000497e+00 1.046882496266142493e+00
4.580000000000000071e+00 1.041729425040055279e+00
4.600000000000000533e+00 1.036599316636360069e+00
4.620000000000000107e+00 1.031492164481039531e+00
4.639999999999999680e+00 1.026407964161579534e+00
4.660000000000000142e+00 1.021346704818020923e+00
4.679999999999999716e+00 1.016308378098196963e+00
4.700000000000000178e+00 1.011292969008789289e+00
4.719999999999999751e+00 1.006300465413533907e+00
4.740000000000000213e+00 1.001330848335200141e+00
4.759999999999999787e+00 9.963841020058255005e-01
4.780000000000000249e+00 9.914602036105402139e-01
4.799999999999999822e+00 9.865591338989303516e-01
4.820000000000000284e+00 9.816808663615825825e-01
4.839999999999999858e+00 9.768253784116943672e-01
4.860000000000000320e+00 9.719926399851992471e-01
4.879999999999999893e+00 9.671826253017844488e-01
4.900000000000000355e+00 9.623953008794099429e-01
4.919999999999999929e+00 9.576306378839494204e-01
4.940000000000000391e+00 9.528885995488536320e-01
4.959999999999999964e+00 9.481691541226808795e-01
4.980000000000000426e+00 9.434722616846364929e-01
5.000000000000000000e+00 9.387978876992801869e-01
5.020000000000000462e+00 9.341459892186274594e-01
5.040000000000000036e+00 9.295165290533821123e-01
5.060000000000000497e+00 9.249094613522437225e-01
5.080000000000000071e+00 9.203247463990372745e-01
5.100000000000000533e+00 9.157623355598388804e-01
5.120000000000000107e+00 9.112221867154365329e-01
5.139999999999999680e+00 9.067042485668217466e-01
5.160000000000000142e+00 9.022084767124604054e-01
5.179999999999999716e+00 8.977348173026661327e-01
5.200000000000000178e+00 8.932832237712039491e-01
5.219999999999999751e+00 8.888536398290123319e-01
5.240000000000000213e+00 8.844460168597071403e-01
5.259999999999999787e+00 8.800602962430709164e-01
5.280000000000000249e+00 8.756964274240789381e-01
5.299999999999999822e+00 8.713543495565446717e-01
5.320000000000000284e+00 8.670340102553082406e-01
5.339999999999999858e+00 8.627353465503735386e-01
5.360000000000000320e+00 8.584583043319934381e-01
5.379999999999999893e+00 8.542028186055476979e-01
5.400000000000000355e+00 8.499688336393085297e-01
5.419999999999999929e+00 8.457562825102821202e-01
5.440000000000000391e+00 8.415651079644779209e-01
5.459999999999999964e+00 8.373952412438887549e-01
5.480000000000000426e+00 8.332466236691250527e-01
5.500000000000000000e+00 8.291191847376651047e-01
5.520000000000000462e+00 8.250128644387864085e-01
5.540000000000000036e+00 8.209275906131328071e-01
5.560000000000000497e+00 8.168633020099538289e-01
5.580000000000000071e+00 8.128199248979854907e-01
5.600000000000000533e+00 8.087973968750225007e-01
5.620000000000000107e+00 8.047956427200978480e-01
5.639999999999999680e+00 8.008145989654734676e-01
5.660000000000000142e+00 7.968541889799990452e-01
5.679999999999999716e+00 7.929143483137055526e-01
5.700000000000000178e+00 7.889949990021533077e-01
5.719999999999999751e+00 7.850960756938657470e-01
5.740000000000000213e+00 7.812174991654463607e-01
5.759999999999999787e+00 7.773592032421129394e-01
5.780000000000000249e+00 7.735211075132951697e-01
5.799999999999999822e+00 7.697031450566422794e-01
5.820000000000000284e+00 7.659052343437342536e-01
5.839999999999999858e+00 7.621273077779592287e-01
5.860000000000000320e+00 7.583692827799261016e-01
5.879999999999999893e+00 7.546310911497072782e-01
5.900000000000000355e+00 7.509126493214551834e-01
5.919999999999999929e+00 7.472138885605453806e-01
5.940000000000000391e+00 7.435347243768507530e-01
5.959999999999999964e+00 7.398750875674112715e-01
5.980000000000000426e+00 7.362348927777223606e-01
6.000000000000000000e+00 7.326140704006286475e-01
6.020000000000000462e+00 7.290125342749256276e-01
6.040000000000000036e+00 7.254302144512319028e-01
6.060000000000000497e+00 7.218670240171533026e-01
6.080000000000000071e+00 7.183228927409489595e-01
6.100000000000000533e+00 7.147977330123927997e-01
6.120000000000000107e+00 7.112914743751919122e-01
6.140000000000000568e+00 7.078040285726020509e-01
6.160000000000000142e+00 7.043353249795551996e-01
6.179999999999999716e+00 7.008852747420611928e-01
6.200000000000000178e+00 6.974538071201121792e-01
6.219999999999999751e+00 6.940408327097670194e-01
6.240000000000000213e+00 6.906462807079918331e-01
6.259999999999999787e+00 6.872700612062770942e-01
6.280000000000000249e+00 6.839121033886162992e-01
6.299999999999999822e+00 6.805723168854189709e-01
6.320000000000000284e+00 6.772506309159531668e-01
6.339999999999999858e+00 6.739469546912157938e-01
6.360000000000000320e+00 6.706612175122232955e-01
6.379999999999999893e+00 6.673933282104500542e-01
6.400000000000000355e+00 6.641432162134259798e-01
6.419999999999999929e+00 6.609107900112434208e-01
6.440000000000000391e+00 6.576959792010450556e-01
6.459999999999999964e+00 6.544986919680083615e-01
6.480000000000000426e+00 6.513188581203610550e-01
6.500000000000000000e+00 6.481563855731815593e-01
6.520000000000000462e+00 6.450112043856841559e-01
6.540000000000000036e+00 6.418832222360696393e-01
6.560000000000000497e+00 6.387723694729079416e-01
6.580000000000000071e+00 6.356785535691908962e-01
6.600000000000000533e+00 6.326017051997353535e-01
6.620000000000000107e+00 6.295417316624793980e-01
6.640000000000000568e+00 6.264985639939342210e-01
6.660000000000000142e+00 6.234721093456784269e-01
6.679999999999999716e+00 6.204622991499625373e-01
6.700000000000000178e+00 6.174690404392761955e-01
6.719999999999999751e+00 6.144922650743087633e-01
6.740000000000000213e+00 6.115318799943431083e-01
6.759999999999999787e+00 6.085878175198893292e-01
6.780000000000000249e+00 6.056599845215737687e-01
6.799999999999999822e+00 6.027483138098377324e-01
6.820000000000000284e+00 5.998527122098857856e-01
6.839999999999999858e+00 5.969731130509744466e-01
6.860000000000000320e+00 5.941094231348704735e-01
6.879999999999999893e+00 5.912615763373323396e-01
6.900000000000000355e+00 5.884294794574410625e-01
6.919999999999999929e+00 5.856130669439943981e-01
6.940000000000000391e+00 5.828122456129615214e-01
6.959999999999999964e+00 5.800269505115902557e-01
6.980000000000000426e+00 5.772570884911563116e-01
7.000000000000000000e+00 5.745025952217045484e-01
7.020000000000000462e+00 5.717633776071197049e-01
7.040000000000000036e+00 5.690393719635452596e-01
7.060000000000000497e+00 5.663304852636947828e-01
7.080000000000000071e+00 5.636366544920987653e-01
7.100000000000000533e+00 5.609577867054873490e-01
7.120000000000000107e+00 5.582938195780975388e-01
7.140000000000000568e+00 5.556446602648374977e-01
7.160000000000000142e+00 5.530102471500356609e-01
7.179999999999999716e+00 5.503904874999703267e-01
7.200000000000000178e+00 5.477853204285323407e-01
7.219999999999999751e+00 5.451946533256144534e-01
7.240000000000000213e+00 5.426184260532705972e-01
7.259999999999999787e+00 5.400565461363373565e-01
7.280000000000000249e+00 5.375089542027903233e-01
7.299999999999999822e+00 5.349755579228444580e-01
7.320000000000000284e+00 5.324562987073444553e-01
7.339999999999999858e+00 5.299510843814805305e-01
7.360000000000000320e+00 5.274598571551278869e-01
7.379999999999999893e+00 5.249825250172078794e-01
7.400000000000000355e+00 5.225190309920308973e-01
7.419999999999999929e+00 5.200692832402170618e-01
7.440000000000000391e+00 5.176332256152041955e-01
7.459999999999999964e+00 5.152107664564895551e-01
7.480000000000000426e+00 5.128018504606252082e-01
7.500000000000000000e+00 5.104063861524374968e-01
7.520000000000000462e+00 5.080243190849045298e-01
7.540000000000000036e+00 5.056555579739141493e-01
7.560000000000000497e+00 5.033000492415383720e-01
7.580000000000000071e+00 5.009577017997544068e-01
7.600000000000000533e+00 4.986284629517763189e-01
7.620000000000000107e+00 4.963122418100440747e-01
7.640000000000000568e+00 4.940089865703705119e-01
7.660000000000000142e+00 4.917186065493687197e-01
7.679999999999999716e+00 4.894410508463347131e-01
7.700000000000000178e+00 4.871762289851560568e-01
7.719999999999999751e+00 4.849240909789364617e-01
7.740000000000000213e+00 4.826845465613432973e-01
7.759999999999999787e+00 4.804575466690977903e-01
7.780000000000000249e+00 4.782430012475629710e-01
7.799999999999999822e+00 4.760408621663780315e-01
7.820000000000000284e+00 4.738510395839699574e-01
7.839999999999999858e+00 4.716734863117114651e-01
7.860000000000000320e+00 4.695081127219238870e-01
7.879999999999999893e+00 4.673548725760667266e-01
