# Electrodo circular de radio 6 mm y espesor 710.0 um.
# Volumen de simulacion (convencion z,y,x):
# N: 1024 x 1024 x 1024 | voxelSize:  0.02mm x 0.02mm x 0.02mm | FOV:  20.48mm x 20.48mm x 20.48mm
# 
# z [mm]		 delta[ppm]
0.000000000000000000e+00 2.424207685694477199e+00
2.000000000000000042e-02 2.421507401826702655e+00
4.000000000000000083e-02 2.418725527395654051e+00
5.999999999999999778e-02 2.415862573146010384e+00
8.000000000000000167e-02 2.412919059741207573e+00
1.000000000000000056e-01 2.409895520282093528e+00
1.199999999999999956e-01 2.406792501412475804e+00
1.400000000000000133e-01 2.403610563542764478e+00
1.600000000000000033e-01 2.400350278108245305e+00
1.799999999999999933e-01 2.397012230528357435e+00
2.000000000000000111e-01 2.393597016139472622e+00
2.200000000000000011e-01 2.390105243946476055e+00
2.399999999999999911e-01 2.386537532217630098e+00
2.600000000000000089e-01 2.382894512546223087e+00
2.800000000000000266e-01 2.379176825121194216e+00
2.999999999999999889e-01 2.375385123054290837e+00
3.200000000000000067e-01 2.371520067413975141e+00
3.400000000000000244e-01 2.367582331781927341e+00
3.599999999999999867e-01 2.363572597041105006e+00
3.800000000000000044e-01 2.359491556151649405e+00
4.000000000000000222e-01 2.355339908726389542e+00
4.199999999999999845e-01 2.351118366013569272e+00
4.400000000000000022e-01 2.346827645255238792e+00
4.600000000000000200e-01 2.342468474871505890e+00
4.799999999999999822e-01 2.338041588620282774e+00
5.000000000000000000e-01 2.333547730976262891e+00
5.200000000000000178e-01 2.328987651090244082e+00
5.400000000000000355e-01 2.324362108358956291e+00
5.600000000000000533e-01 2.319671866196539423e+00
5.799999999999999600e-01 2.314917697790414675e+00
5.999999999999999778e-01 2.310100379684864702e+00
6.199999999999999956e-01 2.305220697719555734e+00
6.400000000000000133e-01 2.300279440434952694e+00
6.600000000000000311e-01 2.295277405189401154e+00
6.800000000000000488e-01 2.290215391387588006e+00
7.000000000000000666e-01 2.285094206772797953e+00
7.199999999999999734e-01 2.279914660486659361e+00
7.399999999999999911e-01 2.274677569532748134e+00
7.600000000000000089e-01 2.269383751669648674e+00
7.800000000000000266e-01 2.264034032042444355e+00
8.000000000000000444e-01 2.258629235916479683e+00
8.200000000000000622e-01 2.253170195472896875e+00
8.399999999999999689e-01 2.247657742385790858e+00
8.599999999999999867e-01 2.242092714778143314e+00
8.800000000000000044e-01 2.236475949649274764e+00
9.000000000000000222e-01 2.230808289987181947e+00
9.200000000000000400e-01 2.225090577049494200e+00
9.400000000000000577e-01 2.219323657628410995e+00
9.599999999999999645e-01 2.213508376191662741e+00
9.799999999999999822e-01 2.207645582295920228e+00
1.000000000000000000e+00 2.201736122591426703e+00
1.020000000000000018e+00 2.195780848379767392e+00
1.040000000000000036e+00 2.189780607488510888e+00
1.060000000000000053e+00 2.183736251969034647e+00
1.080000000000000071e+00 2.177648629845134298e+00
1.100000000000000089e+00 2.171518592946579229e+00
1.120000000000000107e+00 2.165346988537915962e+00
1.140000000000000124e+00 2.159134667283213904e+00
1.159999999999999920e+00 2.152882474759326481e+00
1.179999999999999938e+00 2.146591259547246278e+00
1.199999999999999956e+00 2.140261864635992328e+00
1.219999999999999973e+00 2.133895135635810458e+00
1.239999999999999991e+00 2.127491912077183134e+00
1.260000000000000009e+00 2.121053035741082393e+00
1.280000000000000027e+00 2.114579341859223138e+00
1.300000000000000044e+00 2.108071667556367323e+00
1.320000000000000062e+00 2.101530842956568446e+00
1.340000000000000080e+00 2.094957699732474143e+00
1.360000000000000098e+00 2.088353062123678328e+00
1.380000000000000115e+00 2.081717755587822793e+00
1.400000000000000133e+00 2.075052597735974391e+00
1.419999999999999929e+00 2.068358407080248984e+00
1.439999999999999947e+00 2.061635993892362073e+00
1.459999999999999964e+00 2.054886169042334121e+00
1.479999999999999982e+00 2.048109734785329206e+00
1.500000000000000000e+00 2.041307493685941665e+00
1.520000000000000018e+00 2.034480239339503171e+00
1.540000000000000036e+00 2.027628765376284115e+00
1.560000000000000053e+00 2.020753856122563086e+00
1.580000000000000071e+00 2.013856295679036457e+00
1.600000000000000089e+00 2.006936858527849754e+00
1.620000000000000107e+00 1.999996318679373664e+00
1.640000000000000124e+00 1.993035440230638722e+00
1.660000000000000142e+00 1.986054986574554704e+00
1.679999999999999938e+00 1.979055710916016508e+00
1.699999999999999956e+00 1.972038365537524207e+00
1.719999999999999973e+00 1.965003692278550540e+00
1.739999999999999991e+00 1.957952431851451180e+00
1.760000000000000009e+00 1.950885314290423889e+00
1.780000000000000027e+00 1.943803068311463322e+00
1.800000000000000044e+00 1.936706411736664135e+00
1.820000000000000062e+00 1.929596060891918929e+00
1.840000000000000080e+00 1.922472721012967956e+00
1.860000000000000098e+00 1.915337095674420453e+00
1.880000000000000115e+00 1.908189877183434024e+00
1.900000000000000133e+00 1.901031756033598752e+00
1.919999999999999929e+00 1.893863411292692644e+00
1.939999999999999947e+00 1.886685520074877997e+00
1.959999999999999964e+00 1.879498747928550317e+00
1.979999999999999982e+00 1.872303758320184253e+00
2.000000000000000000e+00 1.865101203028840304e+00
2.020000000000000018e+00 1.857891731634951471e+00
2.040000000000000036e+00 1.850675981927609071e+00
2.060000000000000053e+00 1.843454589391510412e+00
2.080000000000000071e+00 1.836228177633649761e+00
2.100000000000000089e+00 1.828997367861559864e+00
2.120000000000000107e+00 1.821762769335694143e+00
2.140000000000000124e+00 1.814524988832014074e+00
2.160000000000000142e+00 1.807284621126782342e+00
2.180000000000000160e+00 1.800042258436497677e+00
2.200000000000000178e+00 1.792798480941489192e+00
2.220000000000000195e+00 1.785553866196144090e+00
2.240000000000000213e+00 1.778308979698104642e+00
2.260000000000000231e+00 1.771064384261661573e+00
2.280000000000000249e+00 1.763820630639062470e+00
2.300000000000000266e+00 1.756578266849893488e+00
2.319999999999999840e+00 1.749337828861392108e+00
2.339999999999999858e+00 1.742099849866578287e+00
2.359999999999999876e+00 1.734864851030197608e+00
2.379999999999999893e+00 1.727633350708312587e+00
2.399999999999999911e+00 1.720405855266852191e+00
2.419999999999999929e+00 1.713182868235313627e+00
2.439999999999999947e+00 1.705964881204675709e+00
2.459999999999999964e+00 1.698752382907804837e+00
2.479999999999999982e+00 1.691545850203800105e+00
2.500000000000000000e+00 1.684345757077665873e+00
2.520000000000000018e+00 1.677152565717935140e+00
2.540000000000000036e+00 1.669966735428127791e+00
2.560000000000000053e+00 1.662788713804811191e+00
2.580000000000000071e+00 1.655618945553290589e+00
2.600000000000000089e+00 1.648457863773078014e+00
2.620000000000000107e+00 1.641305898670251562e+00
2.640000000000000124e+00 1.634163468957566367e+00
2.660000000000000142e+00 1.627030990455852866e+00
2.680000000000000160e+00 1.619908867615857284e+00
2.700000000000000178e+00 1.612797502001015904e+00
2.720000000000000195e+00 1.605697283938343434e+00
2.740000000000000213e+00 1.598608600874887875e+00
2.760000000000000231e+00 1.591531829164853029e+00
2.780000000000000249e+00 1.584467342291997483e+00
2.800000000000000266e+00 1.577415502800388447e+00
2.819999999999999840e+00 1.570376670374991068e+00
2.839999999999999858e+00 1.563351193923319782e+00
2.859999999999999876e+00 1.556339419506419075e+00
2.879999999999999893e+00 1.549341682578904589e+00
2.899999999999999911e+00 1.542358315762494714e+00
2.919999999999999929e+00 1.535389641251831305e+00
2.939999999999999947e+00 1.528435978422662878e+00
2.959999999999999964e+00 1.521497636411035081e+00
2.979999999999999982e+00 1.514574921548240694e+00
3.000000000000000000e+00 1.507668130120821903e+00
3.020000000000000018e+00 1.500777555624372761e+00
3.040000000000000036e+00 1.493903481712001158e+00
3.060000000000000053e+00 1.487046189259019213e+00
3.080000000000000071e+00 1.480205949507436447e+00
3.100000000000000089e+00 1.473383030933538729e+00
3.120000000000000107e+00 1.466577692596138904e+00
3.140000000000000124e+00 1.459790190799048482e+00
3.160000000000000142e+00 1.453020772650722048e+00
3.180000000000000160e+00 1.446269682513564581e+00
3.200000000000000178e+00 1.439537155782786515e+00
3.220000000000000195e+00 1.432823425114507998e+00
3.240000000000000213e+00 1.426128714431500910e+00
3.260000000000000231e+00 1.419453244922015411e+00
3.280000000000000249e+00 1.412797229280313704e+00
3.300000000000000266e+00 1.406160877468081827e+00
3.320000000000000284e+00 1.399544391197553583e+00
3.339999999999999858e+00 1.392947969447379641e+00
3.359999999999999876e+00 1.386371803196282615e+00
3.379999999999999893e+00 1.379816080685233315e+00
3.399999999999999911e+00 1.373280982409518902e+00
3.419999999999999929e+00 1.366766686119016638e+00
3.439999999999999947e+00 1.360273362076696912e+00
3.459999999999999964e+00 1.353801177788833465e+00
3.479999999999999982e+00 1.347350293537846966e+00
3.500000000000000000e+00 1.340920866834212077e+00
3.520000000000000018e+00 1.334513048231757315e+00
3.540000000000000036e+00 1.328126985493038204e+00
3.560000000000000053e+00 1.321762819695069702e+00
3.580000000000000071e+00 1.315420689099882523e+00
3.600000000000000089e+00 1.309100725558883349e+00
3.620000000000000107e+00 1.302803058080308496e+00
3.640000000000000124e+00 1.296527809540244824e+00
3.660000000000000142e+00 1.290275099938694270e+00
3.680000000000000160e+00 1.284045043425484200e+00
3.700000000000000178e+00 1.277837751236591046e+00
3.720000000000000195e+00 1.271653329043087588e+00
3.740000000000000213e+00 1.265491879559385691e+00
3.760000000000000231e+00 1.259353500223477917e+00
3.780000000000000249e+00 1.253238285468748936e+00
3.800000000000000266e+00 1.247146324743700241e+00
3.820000000000000284e+00 1.241077704438931173e+00
3.839999999999999858e+00 1.235032506254704288e+00
3.859999999999999876e+00 1.229010808774685160e+00
3.879999999999999893e+00 1.223012686189590470e+00
3.899999999999999911e+00 1.217038209509255120e+00
3.919999999999999929e+00 1.211087445650775640e+00
3.939999999999999947e+00 1.205160458280453817e+00
3.959999999999999964e+00 1.199257307274737450e+00
3.979999999999999982e+00 1.193378049183571044e+00
4.000000000000000000e+00 1.187522737072608470e+00
4.020000000000000462e+00 1.181691420599461306e+00
4.040000000000000036e+00 1.175884146245546713e+00
4.060000000000000497e+00 1.170100956996745545e+00
4.080000000000000071e+00 1.164341892973383974e+00
4.099999999999999645e+00 1.158606990706778195e+00
4.120000000000000107e+00 1.152896284175766173e+00
4.139999999999999680e+00 1.147209803670573569e+00
4.160000000000000142e+00 1.141547577244499179e+00
4.179999999999999716e+00 1.135909629156512057e+00
4.200000000000000178e+00 1.130295981746554990e+00
4.219999999999999751e+00 1.124706653448290572e+00
4.240000000000000213e+00 1.119141661096663354e+00
4.259999999999999787e+00 1.113601017502162227e+00
4.280000000000000249e+00 1.108084734199160426e+00
4.299999999999999822e+00 1.102592818573076894e+00
4.320000000000000284e+00 1.097125277058187631e+00
4.339999999999999858e+00 1.091682111808981226e+00
4.360000000000000320e+00 1.086263324356081972e+00
4.379999999999999893e+00 1.080868911813088973e+00
4.400000000000000355e+00 1.075498870999334500e+00
4.419999999999999929e+00 1.070153194173532052e+00
4.440000000000000391e+00 1.064831873631989501e+00
4.459999999999999964e+00 1.059534896960339312e+00
4.480000000000000426e+00 1.054262252116038967e+00
4.500000000000000000e+00 1.049013922189357073e+00
4.520000000000000462e+00 1.043789890978906065e+00
4.540000000000000036e+00 1.038590137253125878e+00
4.560000000000000497e+00 1.033414640827663877e+00
4.580000000000000071e+00 1.028263376318542033e+00
4.600000000000000533e+00 1.023136319730181709e+00
4.620000000000000107e+00 1.018033441691392982e+00
4.639999999999999680e+00 1.012954714562982250e+00
4.660000000000000142e+00 1.007900105147677028e+00
4.679999999999999716e+00 1.002869582326151088e+00
4.700000000000000178e+00 9.978631092319919516e-01
4.719999999999999751e+00 9.928806514251422577e-01
4.740000000000000213e+00 9.879221685229437888e-01
4.759999999999999787e+00 9.829876229199222548e-01
4.780000000000000249e+00 9.780769708659449169e-01
4.799999999999999822e+00 9.731901717413989905e-01
4.820000000000000284e+00 9.683271785734610670e-01
4.839999999999999858e+00 9.634879478756445126e-01
4.860000000000000320e+00 9.586724295931673412e-01
4.879999999999999893e+00 9.538805775159703293e-01
4.900000000000000355e+00 9.491123386441187026e-01
4.919999999999999929e+00 9.443676641833652630e-01
4.940000000000000391e+00 9.396464983214655176e-01
4.959999999999999964e+00 9.349487898154819066e-01
4.980000000000000426e+00 9.302744801698842325e-01
5.000000000000000000e+00 9.256235158247148043e-01
5.020000000000000462e+00 9.209958357263113848e-01
5.040000000000000036e+00 9.163913841255983961e-01
5.060000000000000497e+00 9.118100975322136481e-01
5.080000000000000071e+00 9.072519181321399007e-01
5.100000000000000533e+00 9.027167801159935445e-01
5.120000000000000107e+00 8.982046237253368259e-01
5.139999999999999680e+00 8.937153809458308062e-01
5.160000000000000142e+00 8.892489901915322514e-01
5.179999999999999716e+00 8.848053813535817769e-01
5.200000000000000178e+00 8.803844911319061994e-01
5.219999999999999751e+00 8.759862474300739166e-01
5.240000000000000213e+00 8.716105853437828843e-01
5.259999999999999787e+00 8.672574308924607678e-01
5.280000000000000249e+00 8.629267176740584855e-01
5.299999999999999822e+00 8.586183699239491318e-01
5.320000000000000284e+00 8.543323198454710887e-01
5.339999999999999858e+00 8.500684899866364219e-01
5.360000000000000320e+00 8.458268112560392016e-01
5.379999999999999893e+00 8.416072046077921476e-01
5.400000000000000355e+00 8.374095997523866020e-01
5.419999999999999929e+00 8.332339161402606553e-01
5.440000000000000391e+00 8.290800823773017969e-01
5.459999999999999964e+00 8.249480164974050123e-01
5.480000000000000426e+00 8.208376460922724993e-01
5.500000000000000000e+00 8.167488878632721550e-01
5.520000000000000462e+00 8.126816684753379594e-01
5.540000000000000036e+00 8.086359033783609984e-01
5.560000000000000497e+00 8.046115183949836824e-01
5.580000000000000071e+00 8.006084278017100431e-01
5.600000000000000533e+00 7.966265566604793236e-01
5.620000000000000107e+00 7.926658181496726296e-01
5.639999999999999680e+00 7.887261366493282244e-01
5.660000000000000142e+00 7.848074243121215821e-01
5.679999999999999716e+00 7.809096049122574712e-01
5.700000000000000178e+00 7.770325896464302939e-01
5.719999999999999751e+00 7.731763017564057261e-01
5.740000000000000213e+00 7.693406515499373599e-01
5.759999999999999787e+00 7.655255618071449275e-01
5.780000000000000249e+00 7.617309420113048679e-01
5.799999999999999822e+00 7.579567145491591384e-01
5.820000000000000284e+00 7.542027881414178347e-01
5.839999999999999858e+00 7.504690848472400644e-01
5.860000000000000320e+00 7.467555126842394531e-01
5.879999999999999893e+00 7.430619934473927657e-01
5.900000000000000355e+00 7.393884345082618603e-01
5.919999999999999929e+00 7.357347574587014272e-01
5.940000000000000391e+00 7.321008690789573281e-01
5.959999999999999964e+00 7.284866908165598121e-01
5.980000000000000426e+00 7.248921289128673617e-01
6.000000000000000000e+00 7.213171047276712988e-01
6.020000000000000462e+00 7.177615240136983044e-01
6.040000000000000036e+00 7.142253080974358959e-01
6.060000000000000497e+00 7.107083622910579379e-01
6.080000000000000071e+00 7.072106079401091483e-01
6.100000000000000533e+00 7.037319499622100016e-01
6.120000000000000107e+00 7.002723097723078105e-01
6.140000000000000568e+00 6.968315919374306056e-01
6.160000000000000142e+00 6.934097179902911634e-01
6.179999999999999716e+00 6.900065921893381304e-01
6.200000000000000178e+00 6.866221362315285681e-01
6.219999999999999751e+00 6.832562541067914719e-01
6.240000000000000213e+00 6.799088677209500498e-01
6.259999999999999787e+00 6.765798808336668246e-01
6.280000000000000249e+00 6.732692156024656649e-01
6.299999999999999822e+00 6.699767755931397284e-01
6.320000000000000284e+00 6.667024832560185521e-01
6.339999999999999858e+00 6.634462419977226189e-01
6.360000000000000320e+00 6.602079746008050476e-01
6.379999999999999893e+00 6.569875843456803866e-01
6.400000000000000355e+00 6.537849943849234347e-01
6.419999999999999929e+00 6.506001079040898416e-01
6.440000000000000391e+00 6.474328484620015534e-01
6.459999999999999964e+00 6.442831191790893142e-01
6.480000000000000426e+00 6.411508440551191290e-01
6.500000000000000000e+00 6.380359261736159304e-01
6.520000000000000462e+00 6.349382900085187575e-01
6.540000000000000036e+00 6.318578386331366037e-01
6.560000000000000497e+00 6.287944970273846579e-01
6.580000000000000071e+00 6.257481682796370848e-01
6.600000000000000533e+00 6.227187779062184347e-01
6.620000000000000107e+00 6.197062290344087510e-01
6.640000000000000568e+00 6.167104477460411127e-01
6.660000000000000142e+00 6.137313372298305314e-01
6.679999999999999716e+00 6.107688241609292579e-01
6.700000000000000178e+00 6.078228118106675515e-01
6.719999999999999751e+00 6.048932274740977943e-01
6.740000000000000213e+00 6.019799745251089851e-01
6.759999999999999787e+00 5.990829809040350007e-01
6.780000000000000249e+00 5.962021501060138506e-01
6.799999999999999822e+00 5.933374107408884157e-01
6.820000000000000284e+00 5.904886664425753606e-01
6.839999999999999858e+00 5.876558465135448550e-01
6.860000000000000320e+00 5.848388547428534645e-01
6.879999999999999893e+00 5.820376211476400163e-01
6.900000000000000355e+00 5.792520496873843072e-01
6.919999999999999929e+00 5.764820711149070132e-01
6.940000000000000391e+00 5.737275895742971477e-01
6.959999999999999964e+00 5.709885365740637875e-01
6.980000000000000426e+00 5.682648164560928361e-01
7.000000000000000000e+00 5.655563615036441893e-01
7.020000000000000462e+00 5.628630762685529199e-01
7.040000000000000036e+00 5.601848938269683442e-01
7.060000000000000497e+00 5.575217189518987260e-01
7.080000000000000071e+00 5.548734855296285629e-01
7.100000000000000533e+00 5.522400985646113147e-01
7.120000000000000107e+00 5.496214927696623231e-01
7.140000000000000568e+00 5.470175733900811688e-01
7.160000000000000142e+00 5.444282759807943517e-01
7.179999999999999716e+00 5.418535060364552125e-01
7.200000000000000178e+00 5.392931999688864719e-01
7.219999999999999751e+00 5.367472635298095041e-01
7.240000000000000213e+00 5.342156340019749150e-01
7.259999999999999787e+00 5.316982174010451700e-01
7.280000000000000249e+00 5.291949518940038955e-01
7.299999999999999822e+00 5.267057437665862984e-01
7.320000000000000284e+00 5.242305320826183834e-01
7.339999999999999858e+00 5.217692234032705878e-01
7.360000000000000320e+00 5.193217577011514097e-01
7.379999999999999893e+00 5.168880418175363367e-01
7.400000000000000355e+00 5.144680166451105485e-01
7.419999999999999929e+00 5.120615893092073101e-01
7.440000000000000391e+00 5.096687016332799303e-01
7.459999999999999964e+00 5.072892610300279159e-01
7.480000000000000426e+00 5.049232102637707387e-01
7.500000000000000000e+00 5.025704570372191426e-01
7.520000000000000462e+00 5.002309450650899159e-01
7.540000000000000036e+00 4.979045823421754391e-01
7.560000000000000497e+00 4.955913135425827898e-01
7.580000000000000071e+00 4.932910469546102905e-01
7.600000000000000533e+00 4.910037282202361353e-01
7.620000000000000107e+00 4.887292659221741942e-01
7.640000000000000568e+00 4.864676066782657737e-01
7.660000000000000142e+00 4.842186593659429938e-01
7.679999999999999716e+00 4.819823715864323121e-01
7.700000000000000178e+00 4.797586525117151779e-01
7.719999999999999751e+00 4.775474507334641072e-01
7.740000000000000213e+00 4.753486757174952837e-01
7.759999999999999787e+00 4.731622770525754085e-01
7.780000000000000249e+00 4.709881644971834480e-01
7.799999999999999822e+00 4.688262886434139687e-01
7.820000000000000284e+00 4.666765595407369460e-01
7.839999999999999858e+00 4.645389287904194142e-01
7.860000000000000320e+00 4.624133067308426881e-01
7.879999999999999893e+00 4.602996459779213345e-01
