# Electrodo circular de radio 6 mm y espesor 710.0 um.
# Volumen de simulacion (convencion z,y,x):
# N: 1024 x 1024 x 1024 | voxelSize:  0.02mm x 0.02mm x 0.02mm | FOV:  20.48mm x 20.48mm x 20.48mm
# 
# z [mm]		 delta[ppm]
0.000000000000000000e+00 2.438377044517287651e+00
2.000000000000000042e-02 2.435597296560203517e+00
4.000000000000000083e-02 2.432733738132630830e+00
5.999999999999999778e-02 2.429786917425899695e+00
8.000000000000000167e-02 2.426757394619156738e+00
1.000000000000000056e-01 2.423645741990837266e+00
1.199999999999999956e-01 2.420452541009785907e+00
1.400000000000000133e-01 2.417178388401225231e+00
1.600000000000000033e-01 2.413823891627442375e+00
1.799999999999999933e-01 2.410389672762208502e+00
2.000000000000000111e-01 2.406876364353674358e+00
2.200000000000000011e-01 2.403284613240840528e+00
2.399999999999999911e-01 2.399615075997573399e+00
2.600000000000000089e-01 2.395868423071870534e+00
2.800000000000000266e-01 2.392045333951502428e+00
2.999999999999999889e-01 2.388146501565989066e+00
3.200000000000000067e-01 2.384172627172095105e+00
3.400000000000000244e-01 2.380124425000705202e+00
3.599999999999999867e-01 2.376002616907403997e+00
3.800000000000000044e-01 2.371807937243043618e+00
4.000000000000000222e-01 2.367541127271656443e+00
4.199999999999999845e-01 2.363202940256350804e+00
4.400000000000000022e-01 2.358794135663175862e+00
4.600000000000000200e-01 2.354315484453501028e+00
4.799999999999999822e-01 2.349767763076661797e+00
5.000000000000000000e-01 2.345151758963740285e+00
5.200000000000000178e-01 2.340468264319830460e+00
5.400000000000000355e-01 2.335718081813894287e+00
5.600000000000000533e-01 2.330902018173910850e+00
5.799999999999999600e-01 2.326020890068864588e+00
5.999999999999999778e-01 2.321075517514670228e+00
6.199999999999999956e-01 2.316066729944147085e+00
6.400000000000000133e-01 2.310995359427352458e+00
6.600000000000000311e-01 2.305862246925957315e+00
6.800000000000000488e-01 2.300668235334606848e+00
7.000000000000000666e-01 2.295414175915911237e+00
7.199999999999999734e-01 2.290100921166791537e+00
7.399999999999999911e-01 2.284729331430551014e+00
7.600000000000000089e-01 2.279300267594190021e+00
7.800000000000000266e-01 2.273814597873836885e+00
8.000000000000000444e-01 2.268273190347255497e+00
8.200000000000000622e-01 2.262676919908994222e+00
8.399999999999999689e-01 2.257026660643778548e+00
8.599999999999999867e-01 2.251323292947541521e+00
8.800000000000000044e-01 2.245567695746181869e+00
9.000000000000000222e-01 2.239760753778632818e+00
9.200000000000000400e-01 2.233903349666528815e+00
9.400000000000000577e-01 2.227996371355349670e+00
9.599999999999999645e-01 2.222040704039625947e+00
9.799999999999999822e-01 2.216037237758103018e+00
1.000000000000000000e+00 2.209986859180022023e+00
1.020000000000000018e+00 2.203890459350080988e+00
1.040000000000000036e+00 2.197748925340601733e+00
1.060000000000000053e+00 2.191563148142037232e+00
1.080000000000000071e+00 2.185334014186501861e+00
1.100000000000000089e+00 2.179062413379397878e+00
1.120000000000000107e+00 2.172749230499301909e+00
1.140000000000000124e+00 2.166395353366159515e+00
1.159999999999999920e+00 2.160001664123077703e+00
1.179999999999999938e+00 2.153569047536407322e+00
1.199999999999999956e+00 2.147098382164562391e+00
1.219999999999999973e+00 2.140590548785222591e+00
1.239999999999999991e+00 2.134046421456745612e+00
1.260000000000000009e+00 2.127466876067588331e+00
1.280000000000000027e+00 2.120852781295554212e+00
1.300000000000000044e+00 2.114205007274415848e+00
1.320000000000000062e+00 2.107524416456645788e+00
1.340000000000000080e+00 2.100811872392073454e+00
1.360000000000000098e+00 2.094068230499491090e+00
1.380000000000000115e+00 2.087294346952074164e+00
1.400000000000000133e+00 2.080491069363564538e+00
1.419999999999999929e+00 2.073659245775088866e+00
1.439999999999999947e+00 2.066799715261398163e+00
1.459999999999999964e+00 2.059913317013598366e+00
1.479999999999999982e+00 2.053000880871227007e+00
1.500000000000000000e+00 2.046063236495282656e+00
1.520000000000000018e+00 2.039101203831773290e+00
1.540000000000000036e+00 2.032115602369287899e+00
1.560000000000000053e+00 2.025107241539903402e+00
1.580000000000000071e+00 2.018076930055488827e+00
1.600000000000000089e+00 2.011025466251664895e+00
1.620000000000000107e+00 2.003953647496925061e+00
1.640000000000000124e+00 1.996862260485603446e+00
1.660000000000000142e+00 1.989752090713774235e+00
1.679999999999999938e+00 1.982623912727059068e+00
1.699999999999999956e+00 1.975478499657184583e+00
1.719999999999999973e+00 1.968316613430665996e+00
1.739999999999999991e+00 1.961139014359792432e+00
1.760000000000000009e+00 1.953946451318143929e+00
1.780000000000000027e+00 1.946739671379662084e+00
1.800000000000000044e+00 1.939519409967154662e+00
1.820000000000000062e+00 1.932286400533036241e+00
1.840000000000000080e+00 1.925041364686876255e+00
1.860000000000000098e+00 1.917785021911307064e+00
1.880000000000000115e+00 1.910518079674848657e+00
1.900000000000000133e+00 1.903241243176410302e+00
1.919999999999999929e+00 1.895955205449537440e+00
1.939999999999999947e+00 1.888660657128858222e+00
1.959999999999999964e+00 1.881358276552091979e+00
1.979999999999999982e+00 1.874048739541666730e+00
2.000000000000000000e+00 1.866732709510785515e+00
2.020000000000000018e+00 1.859410847253404775e+00
2.040000000000000036e+00 1.852083801060769197e+00
2.060000000000000053e+00 1.844752216512869136e+00
2.080000000000000071e+00 1.837416726611823314e+00
2.100000000000000089e+00 1.830077961567855738e+00
2.120000000000000107e+00 1.822736538956068353e+00
2.140000000000000124e+00 1.815393073489896425e+00
2.160000000000000142e+00 1.808048167207767731e+00
2.180000000000000160e+00 1.800702419226936080e+00
2.200000000000000178e+00 1.793356415966672390e+00
2.220000000000000195e+00 1.786010740875319414e+00
2.240000000000000213e+00 1.778665964696613644e+00
2.260000000000000231e+00 1.771322655162743454e+00
2.280000000000000249e+00 1.763981367310540893e+00
2.300000000000000266e+00 1.756642653133270393e+00
2.319999999999999840e+00 1.749307051953398640e+00
2.339999999999999858e+00 1.741975100025786816e+00
2.359999999999999876e+00 1.734647320973883300e+00
2.379999999999999893e+00 1.727324235336938685e+00
2.399999999999999911e+00 1.720006351076422968e+00
2.419999999999999929e+00 1.712694173059846170e+00
2.439999999999999947e+00 1.705388193644345129e+00
2.459999999999999964e+00 1.698088902089616159e+00
2.479999999999999982e+00 1.690796775225601900e+00
2.500000000000000000e+00 1.683512286787010703e+00
2.520000000000000018e+00 1.676235898172141026e+00
2.540000000000000036e+00 1.668968067691423363e+00
2.560000000000000053e+00 1.661709241424407457e+00
2.580000000000000071e+00 1.654459862374704660e+00
2.600000000000000089e+00 1.647220361432277791e+00
2.620000000000000107e+00 1.639991166427150926e+00
2.640000000000000124e+00 1.632772693204109116e+00
2.660000000000000142e+00 1.625565354567481302e+00
2.680000000000000160e+00 1.618369551475505652e+00
2.700000000000000178e+00 1.611185681868446018e+00
2.720000000000000195e+00 1.604014131989836001e+00
2.740000000000000213e+00 1.596855285090172050e+00
2.760000000000000231e+00 1.589709512882378162e+00
2.780000000000000249e+00 1.582577184113271862e+00
2.800000000000000266e+00 1.575458656160546367e+00
2.819999999999999840e+00 1.568354283464207022e+00
2.839999999999999858e+00 1.561264409272483000e+00
2.859999999999999876e+00 1.554189373925366491e+00
2.879999999999999893e+00 1.547129506756867112e+00
2.899999999999999911e+00 1.540085134222757723e+00
2.919999999999999929e+00 1.533056571966699977e+00
2.939999999999999947e+00 1.526044132784251772e+00
2.959999999999999964e+00 1.519048118860359287e+00
2.979999999999999982e+00 1.512068829561705297e+00
3.000000000000000000e+00 1.505106553853142071e+00
3.020000000000000018e+00 1.498161577910414710e+00
3.040000000000000036e+00 1.491234177723106180e+00
3.060000000000000053e+00 1.484324626519732293e+00
3.080000000000000071e+00 1.477433187564902273e+00
3.100000000000000089e+00 1.470560121388736263e+00
3.120000000000000107e+00 1.463705678785900410e+00
3.140000000000000124e+00 1.456870107841311324e+00
3.160000000000000142e+00 1.450053647138806800e+00
3.180000000000000160e+00 1.443256532575047713e+00
3.200000000000000178e+00 1.436478990785564402e+00
3.220000000000000195e+00 1.429721245738790225e+00
3.240000000000000213e+00 1.422983512387282934e+00
3.260000000000000231e+00 1.416266003033770371e+00
3.280000000000000249e+00 1.409568921215394122e+00
3.300000000000000266e+00 1.402892467833612100e+00
3.320000000000000284e+00 1.396236835279360822e+00
3.339999999999999858e+00 1.389602213318661850e+00
3.359999999999999876e+00 1.382988783466590821e+00
3.379999999999999893e+00 1.376396724620408518e+00
3.399999999999999911e+00 1.369826207690327591e+00
3.419999999999999929e+00 1.363277400971931730e+00
3.439999999999999947e+00 1.356750465041704379e+00
3.459999999999999964e+00 1.350245557860566326e+00
3.479999999999999982e+00 1.343762829942160009e+00
3.500000000000000000e+00 1.337302429179247465e+00
3.520000000000000018e+00 1.330864496292818000e+00
3.540000000000000036e+00 1.324449169373101753e+00
3.560000000000000053e+00 1.318056579617566504e+00
3.580000000000000071e+00 1.311686855578243938e+00
3.600000000000000089e+00 1.305340119196767956e+00
3.620000000000000107e+00 1.299016489749717174e+00
3.640000000000000124e+00 1.292716080188805794e+00
3.660000000000000142e+00 1.286439000775953190e+00
3.680000000000000160e+00 1.280185355736803032e+00
3.700000000000000178e+00 1.273955246577160194e+00
3.720000000000000195e+00 1.267748769058069991e+00
3.740000000000000213e+00 1.261566016185271755e+00
3.760000000000000231e+00 1.255407075514045845e+00
3.780000000000000249e+00 1.249272031803335903e+00
3.800000000000000266e+00 1.243160964658621692e+00
3.820000000000000284e+00 1.237073950842310310e+00
3.839999999999999858e+00 1.231011062262943767e+00
3.859999999999999876e+00 1.224972367933446327e+00
3.879999999999999893e+00 1.218957932314979953e+00
3.899999999999999911e+00 1.212967816914618302e+00
3.919999999999999929e+00 1.207002078992213567e+00
3.939999999999999947e+00 1.201060772789045661e+00
3.959999999999999964e+00 1.195143948606067541e+00
3.979999999999999982e+00 1.189251653655070351e+00
4.000000000000000000e+00 1.183383931516727383e+00
4.020000000000000462e+00 1.177540822605771309e+00
4.040000000000000036e+00 1.171722364017260487e+00
4.060000000000000497e+00 1.165928589597290399e+00
4.080000000000000071e+00 1.160159530185925547e+00
4.099999999999999645e+00 1.154415213284935904e+00
4.120000000000000107e+00 1.148695663705862069e+00
4.139999999999999680e+00 1.143000902826224907e+00
4.160000000000000142e+00 1.137330949651271572e+00
4.179999999999999716e+00 1.131685819650084746e+00
4.200000000000000178e+00 1.126065526239520498e+00
4.219999999999999751e+00 1.120470079191651758e+00
4.240000000000000213e+00 1.114899486548484475e+00
4.259999999999999787e+00 1.109353752592114217e+00
4.280000000000000249e+00 1.103832880198788668e+00
4.299999999999999822e+00 1.098336868363176677e+00
4.320000000000000284e+00 1.092865715000413962e+00
4.339999999999999858e+00 1.087419414015802666e+00
4.360000000000000320e+00 1.081997958563510887e+00
4.379999999999999893e+00 1.076601337653019685e+00
4.400000000000000355e+00 1.071229539873144176e+00
4.419999999999999929e+00 1.065882549526572243e+00
4.440000000000000391e+00 1.060560350827858267e+00
4.459999999999999964e+00 1.055262923557356292e+00
4.480000000000000426e+00 1.049990247741953153e+00
4.500000000000000000e+00 1.044742298819599791e+00
4.520000000000000462e+00 1.039519052811558764e+00
4.540000000000000036e+00 1.034320480988796254e+00
4.560000000000000497e+00 1.029146555544504071e+00
4.580000000000000071e+00 1.023997243753562048e+00
4.600000000000000533e+00 1.018872514154154141e+00
4.620000000000000107e+00 1.013772330191480275e+00
4.639999999999999680e+00 1.008696656917329237e+00
4.660000000000000142e+00 1.003645454109187485e+00
4.679999999999999716e+00 9.986186834966281900e-01
4.700000000000000178e+00 9.936163013469526684e-01
4.719999999999999751e+00 9.886382662273246469e-01
4.740000000000000213e+00 9.836845310480213378e-01
4.759999999999999787e+00 9.787550513692478971e-01
4.780000000000000249e+00 9.738497768930715059e-01
4.799999999999999822e+00 9.689686603239009433e-01
4.820000000000000284e+00 9.641116483001364035e-01
4.839999999999999858e+00 9.592786908173019933e-01
4.860000000000000320e+00 9.544697315904315804e-01
4.879999999999999893e+00 9.496847180488895424e-01
4.900000000000000355e+00 9.449235911204718619e-01
4.919999999999999929e+00 9.401862958069823195e-01
4.940000000000000391e+00 9.354727703809815331e-01
4.959999999999999964e+00 9.307829575512380771e-01
4.980000000000000426e+00 9.261167930630362921e-01
5.000000000000000000e+00 9.214742174626312510e-01
5.020000000000000462e+00 9.168551640919895274e-01
5.040000000000000036e+00 9.122595714614373241e-01
5.060000000000000497e+00 9.076873706296687550e-01
5.080000000000000071e+00 9.031384981937914391e-01
5.100000000000000533e+00 8.986128830454082062e-01
5.120000000000000107e+00 8.941104599873249681e-01
5.139999999999999680e+00 8.896311558564545807e-01
5.160000000000000142e+00 8.851749037764831129e-01
5.179999999999999716e+00 8.807416286383193960e-01
5.200000000000000178e+00 8.763312619980597740e-01
5.219999999999999751e+00 8.719437269056603546e-01
5.240000000000000213e+00 8.675789534575749640e-01
5.259999999999999787e+00 8.632368629642827029e-01
5.280000000000000249e+00 8.589173841670284526e-01
5.299999999999999822e+00 8.546204367348160247e-01
5.320000000000000284e+00 8.503459481546834509e-01
5.339999999999999858e+00 8.460938365487256085e-01
5.360000000000000320e+00 8.418640282474333381e-01
5.379999999999999893e+00 8.376564399172192754e-01
5.400000000000000355e+00 8.334709968263925850e-01
5.419999999999999929e+00 8.293076142736476308e-01
5.440000000000000391e+00 8.251662165562758666e-01
5.459999999999999964e+00 8.210467176900327901e-01
5.480000000000000426e+00 8.169490410892239485e-01
5.500000000000000000e+00 8.128730995683205451e-01
5.520000000000000462e+00 8.088188157436284609e-01
5.540000000000000036e+00 8.047861013069460556e-01
5.560000000000000497e+00 8.007748781585886100e-01
5.580000000000000071e+00 7.967850569433350127e-01
5.600000000000000533e+00 7.928165589246015665e-01
5.620000000000000107e+00 7.888692937729135934e-01
5.639999999999999680e+00 7.849431821910678453e-01
5.660000000000000142e+00 7.810381329452682486e-01
5.679999999999999716e+00 7.771540662512189668e-01
5.700000000000000178e+00 7.732908900379935613e-01
5.719999999999999751e+00 7.694485241050418312e-01
5.740000000000000213e+00 7.656268756088382421e-01
5.759999999999999787e+00 7.618258640008098714e-01
5.780000000000000249e+00 7.580453957267437870e-01
5.799999999999999822e+00 7.542853899557453445e-01
5.820000000000000284e+00 7.505457524823105908e-01
5.839999999999999858e+00 7.468264022564530258e-01
5.860000000000000320e+00 7.431272444782972553e-01
5.879999999999999893e+00 7.394481979396060334e-01
5.900000000000000355e+00 7.357891673006720090e-01
5.919999999999999929e+00 7.321500712535147226e-01
5.940000000000000391e+00 7.285308139707998842e-01
5.959999999999999964e+00 7.249313141010622630e-01
5.980000000000000426e+00 7.213514753792888978e-01
6.000000000000000000e+00 7.177912164645893212e-01
6.020000000000000462e+00 7.142504407020292545e-01
6.040000000000000036e+00 7.107290668132228983e-01
6.060000000000000497e+00 7.072269977989473766e-01
6.080000000000000071e+00 7.037441524931995485e-01
6.100000000000000533e+00 7.002804335960113313e-01
6.120000000000000107e+00 6.968357601016436087e-01
6.140000000000000568e+00 6.934100344509493974e-01
6.160000000000000142e+00 6.900031758443810892e-01
6.179999999999999716e+00 6.866150865032213391e-01
6.200000000000000178e+00 6.832456858781845721e-01
6.219999999999999751e+00 6.798948760087021315e-01
6.240000000000000213e+00 6.765625766379961270e-01
6.259999999999999787e+00 6.732486896595542003e-01
6.280000000000000249e+00 6.699531351495943143e-01
6.299999999999999822e+00 6.666758148897816705e-01
6.320000000000000284e+00 6.634166493281202781e-01
6.339999999999999858e+00 6.601755401668714107e-01
6.360000000000000320e+00 6.569524082629648598e-01
6.379999999999999893e+00 6.537471552700170330e-01
6.400000000000000355e+00 6.505597024894380631e-01
6.419999999999999929e+00 6.473899515553388495e-01
6.440000000000000391e+00 6.442378242476292094e-01
6.459999999999999964e+00 6.411032222085140120e-01
6.480000000000000426e+00 6.379860677289301840e-01
6.500000000000000000e+00 6.348862624852640302e-01
6.520000000000000462e+00 6.318037293105783769e-01
6.540000000000000036e+00 6.287383699400727055e-01
6.560000000000000497e+00 6.256901077786467535e-01
6.580000000000000071e+00 6.226588446435400437e-01
6.600000000000000533e+00 6.196445045398715212e-01
6.620000000000000107e+00 6.166469893887822629e-01
6.640000000000000568e+00 6.136662238226973098e-01
6.660000000000000142e+00 6.107021098872146281e-01
6.679999999999999716e+00 6.077545728679039083e-01
6.700000000000000178e+00 6.048235149541016931e-01
6.719999999999999751e+00 6.019088621091741587e-01
6.740000000000000213e+00 5.990105166842455420e-01
6.759999999999999787e+00 5.961284053439694919e-01
6.780000000000000249e+00 5.932624306181317753e-01
6.799999999999999822e+00 5.904125198950512798e-01
6.820000000000000284e+00 5.875785758988935070e-01
6.839999999999999858e+00 5.847605267629538695e-01
6.860000000000000320e+00 5.819582754204013497e-01
6.879999999999999893e+00 5.791717507697828893e-01
6.900000000000000355e+00 5.764008559668236664e-01
6.919999999999999929e+00 5.736455206946088348e-01
6.940000000000000391e+00 5.709056483439508556e-01
6.959999999999999964e+00 5.681811694007943281e-01
6.980000000000000426e+00 5.654719875025753240e-01
7.000000000000000000e+00 5.627780339555169542e-01
7.020000000000000462e+00 5.600992126542548855e-01
7.040000000000000036e+00 5.574354557418242928e-01
7.060000000000000497e+00 5.547866673797140491e-01
7.080000000000000071e+00 5.521527805634509622e-01
7.100000000000000533e+00 5.495336997301532023e-01
7.120000000000000107e+00 5.469293587427112024e-01
7.140000000000000568e+00 5.443396623217771069e-01
7.160000000000000142e+00 5.417645452116992555e-01
7.179999999999999716e+00 5.392039124237528736e-01
7.200000000000000178e+00 5.366576995970822050e-01
7.219999999999999751e+00 5.341258120398801879e-01
7.240000000000000213e+00 5.316081862987100948e-01
7.259999999999999787e+00 5.291047279842115980e-01
7.280000000000000249e+00 5.266153745623011195e-01
7.299999999999999822e+00 5.241400319508501271e-01
7.320000000000000284e+00 5.216786385464046161e-01
7.339999999999999858e+00 5.192311005781596878e-01
7.360000000000000320e+00 5.167973573839321766e-01
7.379999999999999893e+00 5.143773155076369896e-01
7.400000000000000355e+00 5.119709152383973283e-01
7.419999999999999929e+00 5.095780634375974838e-01
7.440000000000000391e+00 5.071987013551334522e-01
7.459999999999999964e+00 5.048327361719625594e-01
7.480000000000000426e+00 5.024801101076615817e-01
7.500000000000000000e+00 5.001407306642727812e-01
7.520000000000000462e+00 4.978145410394298476e-01
7.540000000000000036e+00 4.955014490571905128e-01
7.560000000000000497e+00 4.932013989011175825e-01
7.580000000000000071e+00 4.909142987176397521e-01
7.600000000000000533e+00 4.886400936836425846e-01
7.620000000000000107e+00 4.863786922677599267e-01
7.640000000000000568e+00 4.841300406471361617e-01
7.660000000000000142e+00 4.818940476119075722e-01
7.679999999999999716e+00 4.796706603459770513e-01
7.700000000000000178e+00 4.774597879597981542e-01
7.719999999999999751e+00 4.752613786501032611e-01
7.740000000000000213e+00 4.730753418460023618e-01
7.759999999999999787e+00 4.709016267627444408e-01
7.780000000000000249e+00 4.687401431459672363e-01
7.799999999999999822e+00 4.665908412347404277e-01
7.820000000000000284e+00 4.644536310886683839e-01
7.839999999999999858e+00 4.623284639755862457e-01
7.860000000000000320e+00 4.602152502660828981e-01
7.879999999999999893e+00 4.581139422613633161e-01
