# Electrodo circular de radio 6 mm y espesor 710.0 um.
# Volumen de simulacion (convencion z,y,x):
# N: 1024 x 1024 x 1024 | voxelSize:  0.02mm x 0.02mm x 0.02mm | FOV:  20.48mm x 20.48mm x 20.48mm
# 
# z [mm]		 delta[ppm]
0.000000000000000000e+00 3.241867116707104479e+00
2.000000000000000042e-02 3.231479961073838059e+00
4.000000000000000083e-02 3.220831736282056657e+00
5.999999999999999778e-02 3.209928718351668486e+00
8.000000000000000167e-02 3.198777246495852822e+00
1.000000000000000056e-01 3.187383753695494981e+00
1.199999999999999956e-01 3.175754727066442129e+00
1.400000000000000133e-01 3.163896720947855012e+00
1.600000000000000033e-01 3.151816333145048610e+00
1.799999999999999933e-01 3.139520210483733198e+00
2.000000000000000111e-01 3.127015028639808847e+00
2.200000000000000011e-01 3.114307496067044045e+00
2.399999999999999911e-01 3.101404334704764398e+00
2.600000000000000089e-01 3.088312283824851345e+00
2.800000000000000266e-01 3.075038081167797532e+00
2.999999999999999889e-01 3.061588467108224521e+00
3.200000000000000067e-01 3.047970166012137216e+00
3.400000000000000244e-01 3.034189890940579559e+00
3.599999999999999867e-01 3.020254325160799613e+00
3.800000000000000044e-01 3.006170127512164392e+00
4.000000000000000222e-01 2.991943914043505792e+00
4.199999999999999845e-01 2.977582264125626654e+00
4.400000000000000022e-01 2.963091702205822742e+00
4.600000000000000200e-01 2.948478704722905519e+00
4.799999999999999822e-01 2.933749681983242041e+00
5.000000000000000000e-01 2.918910985916231660e+00
5.200000000000000178e-01 2.903968892073035324e+00
5.400000000000000355e-01 2.888929608246535441e+00
5.600000000000000533e-01 2.873799256599096630e+00
5.799999999999999600e-01 2.858583883159875327e+00
5.999999999999999778e-01 2.843289440080032371e+00
6.199999999999999956e-01 2.827921796011259481e+00
6.400000000000000133e-01 2.812486718488881543e+00
6.600000000000000311e-01 2.796989885187366021e+00
6.800000000000000488e-01 2.781436866423582011e+00
7.000000000000000666e-01 2.765833137278523424e+00
7.199999999999999734e-01 2.750184060213787696e+00
7.399999999999999911e-01 2.734494898042733269e+00
7.600000000000000089e-01 2.718770796646064802e+00
7.800000000000000266e-01 2.703016798770880413e+00
8.000000000000000444e-01 2.687237826831872844e+00
8.200000000000000622e-01 2.671438697512301896e+00
8.399999999999999689e-01 2.655624104631652660e+00
8.599999999999999867e-01 2.639798634519280096e+00
8.800000000000000044e-01 2.623966748930200765e+00
9.000000000000000222e-01 2.608132801159260161e+00
9.200000000000000400e-01 2.592301018982555494e+00
9.400000000000000577e-01 2.576475521477952224e+00
9.599999999999999645e-01 2.560660301970985042e+00
9.799999999999999822e-01 2.544859245525907809e+00
1.000000000000000000e+00 2.529076111872150978e+00
1.020000000000000018e+00 2.513314553529167217e+00
1.040000000000000036e+00 2.497578098691361603e+00
1.060000000000000053e+00 2.481870169949484062e+00
1.080000000000000071e+00 2.466194067110319743e+00
1.100000000000000089e+00 2.450552986477369188e+00
1.120000000000000107e+00 2.434950003583951084e+00
1.140000000000000124e+00 2.419388092996149542e+00
1.159999999999999920e+00 2.403870110937332605e+00
1.179999999999999938e+00 2.388398815577098766e+00
1.199999999999999956e+00 2.372976849527845378e+00
1.219999999999999973e+00 2.357606760584333383e+00
1.239999999999999991e+00 2.342290984073013504e+00
1.260000000000000009e+00 2.327031864008049400e+00
1.280000000000000027e+00 2.311831635276948127e+00
1.300000000000000044e+00 2.296692445180186226e+00
1.320000000000000062e+00 2.281616335437258059e+00
1.340000000000000080e+00 2.266605264078560555e+00
1.360000000000000098e+00 2.251661087258873817e+00
1.380000000000000115e+00 2.236785581471707030e+00
1.400000000000000133e+00 2.221980425158058825e+00
1.419999999999999929e+00 2.207247221215099309e+00
1.439999999999999947e+00 2.192587478390911837e+00
1.459999999999999964e+00 2.178002634060975495e+00
1.479999999999999982e+00 2.163494035400599813e+00
1.500000000000000000e+00 2.149062962404340471e+00
1.520000000000000018e+00 2.134710608830515000e+00
1.540000000000000036e+00 2.120438105440286325e+00
1.560000000000000053e+00 2.106246500709644476e+00
1.580000000000000071e+00 2.092136784266475313e+00
1.600000000000000089e+00 2.078109867367876173e+00
1.620000000000000107e+00 2.064166606514998836e+00
1.640000000000000124e+00 2.050307783694484520e+00
1.660000000000000142e+00 2.036534130152339195e+00
1.679999999999999938e+00 2.022846306400476468e+00
1.699999999999999956e+00 2.009244926132180975e+00
1.719999999999999973e+00 1.995730535995590138e+00
1.739999999999999991e+00 1.982303639634546144e+00
1.760000000000000009e+00 1.968964677232780236e+00
1.780000000000000027e+00 1.955714049665087328e+00
1.800000000000000044e+00 1.942552097816634626e+00
1.820000000000000062e+00 1.929479126830470959e+00
1.840000000000000080e+00 1.916495385208051516e+00
1.860000000000000098e+00 1.903601089139993929e+00
1.880000000000000115e+00 1.890796401394433390e+00
1.900000000000000133e+00 1.878081455718825010e+00
1.919999999999999929e+00 1.865456335524116271e+00
1.939999999999999947e+00 1.852921098346165252e+00
1.959999999999999964e+00 1.840475754334071068e+00
1.979999999999999982e+00 1.828120290760435696e+00
2.000000000000000000e+00 1.815854650323374342e+00
2.020000000000000018e+00 1.803678755695441449e+00
2.040000000000000036e+00 1.791592487649039223e+00
2.060000000000000053e+00 1.779595709634343326e+00
2.080000000000000071e+00 1.767688245738778141e+00
2.100000000000000089e+00 1.755869905284711763e+00
2.120000000000000107e+00 1.744140460633776479e+00
2.140000000000000124e+00 1.732499671795465712e+00
2.160000000000000142e+00 1.720947264087811623e+00
2.180000000000000160e+00 1.709482952748359930e+00
2.200000000000000178e+00 1.698106420462703658e+00
2.220000000000000195e+00 1.686817341969542916e+00
2.240000000000000213e+00 1.675615361469207087e+00
2.260000000000000231e+00 1.664500117214713804e+00
2.280000000000000249e+00 1.653471218812274435e+00
2.300000000000000266e+00 1.642528271790458572e+00
2.319999999999999840e+00 1.631670854805164161e+00
2.339999999999999858e+00 1.620898544179096623e+00
2.359999999999999876e+00 1.610210891023526436e+00
2.379999999999999893e+00 1.599607445740382605e+00
2.399999999999999911e+00 1.589087735073481555e+00
2.419999999999999929e+00 1.578651286565612155e+00
2.439999999999999947e+00 1.568297605551694840e+00
2.459999999999999964e+00 1.558026199563251168e+00
2.479999999999999982e+00 1.547836555276265846e+00
2.500000000000000000e+00 1.537728162855450886e+00
2.520000000000000018e+00 1.527700492869286997e+00
2.540000000000000036e+00 1.517753020566520394e+00
2.560000000000000053e+00 1.507885202771096722e+00
2.580000000000000071e+00 1.498096502083266168e+00
2.600000000000000089e+00 1.488386363766847964e+00
2.620000000000000107e+00 1.478754239867328790e+00
2.640000000000000124e+00 1.469199566104028243e+00
2.660000000000000142e+00 1.459721785897534874e+00
2.680000000000000160e+00 1.450320327279067012e+00
2.700000000000000178e+00 1.440994626819521285e+00
2.720000000000000195e+00 1.431744106568459740e+00
2.740000000000000213e+00 1.422568197876998619e+00
2.760000000000000231e+00 1.413466318378531428e+00
2.780000000000000249e+00 1.404437895697648431e+00
2.800000000000000266e+00 1.395482344484796355e+00
2.819999999999999840e+00 1.386599090003346246e+00
2.839999999999999858e+00 1.377787545230091171e+00
2.859999999999999876e+00 1.369047134312540992e+00
2.879999999999999893e+00 1.360377269747211404e+00
2.899999999999999911e+00 1.351777375699155570e+00
2.919999999999999929e+00 1.343246865269729362e+00
2.939999999999999947e+00 1.334785163670285657e+00
2.959999999999999964e+00 1.326391685591139957e+00
2.979999999999999982e+00 1.318065858221348474e+00
3.000000000000000000e+00 1.309807098730261909e+00
3.020000000000000018e+00 1.301614837125268043e+00
3.040000000000000036e+00 1.293488493857372523e+00
3.060000000000000053e+00 1.285427502508702080e+00
3.080000000000000071e+00 1.277431287533300930e+00
3.100000000000000089e+00 1.269499286766142543e+00
3.120000000000000107e+00 1.261630929310336713e+00
3.140000000000000124e+00 1.253825657859376497e+00
3.160000000000000142e+00 1.246082906741667662e+00
3.180000000000000160e+00 1.238402124047705444e+00
3.200000000000000178e+00 1.230782749842846746e+00
3.220000000000000195e+00 1.223224238091096705e+00
3.240000000000000213e+00 1.215726035046768017e+00
3.260000000000000231e+00 1.208287600966519548e+00
3.280000000000000249e+00 1.200908388690586692e+00
3.300000000000000266e+00 1.193587865134686732e+00
3.320000000000000284e+00 1.186325490071229893e+00
3.339999999999999858e+00 1.179120737392691298e+00
3.359999999999999876e+00 1.171973074103246137e+00
3.379999999999999893e+00 1.164881981345187167e+00
3.399999999999999911e+00 1.157846933611163642e+00
3.419999999999999929e+00 1.150867419525225976e+00
3.439999999999999947e+00 1.143942921285857839e+00
3.459999999999999964e+00 1.137072935193241374e+00
3.479999999999999982e+00 1.130256951333012072e+00
3.500000000000000000e+00 1.123494473841330166e+00
3.520000000000000018e+00 1.116785000839327413e+00
3.540000000000000036e+00 1.110128044427567406e+00
3.560000000000000053e+00 1.103523110880909375e+00
3.580000000000000071e+00 1.096969720363943246e+00
3.600000000000000089e+00 1.090467387396020227e+00
3.620000000000000107e+00 1.084015640279282877e+00
3.640000000000000124e+00 1.077614001843346880e+00
3.660000000000000142e+00 1.071262008577574587e+00
3.680000000000000160e+00 1.064959191664925697e+00
3.700000000000000178e+00 1.058705095810107188e+00
3.720000000000000195e+00 1.052499260571920336e+00
3.740000000000000213e+00 1.046341238878953694e+00
3.760000000000000231e+00 1.040230578669726569e+00
3.780000000000000249e+00 1.034166841087635014e+00
3.800000000000000266e+00 1.028149582438003584e+00
3.820000000000000284e+00 1.022178372053995643e+00
3.839999999999999858e+00 1.016252774579702756e+00
3.859999999999999876e+00 1.010372367498784341e+00
3.879999999999999893e+00 1.004536723752493810e+00
3.899999999999999911e+00 9.987454289228432369e-01
3.919999999999999929e+00 9.929980641945034270e-01
3.939999999999999947e+00 9.872942231843231387e-01
3.959999999999999964e+00 9.816334952558324334e-01
3.979999999999999982e+00 9.760154819869603093e-01
4.000000000000000000e+00 9.704397808459257480e-01
4.020000000000000462e+00 9.649060012890546822e-01
4.040000000000000036e+00 9.594137488065825892e-01
4.060000000000000497e+00 9.539626406425369964e-01
4.080000000000000071e+00 9.485522902190380856e-01
4.099999999999999645e+00 9.431823224702337027e-01
4.120000000000000107e+00 9.378523586534693868e-01
4.139999999999999680e+00 9.325620312892933805e-01
4.160000000000000142e+00 9.273109693679537635e-01
4.179999999999999716e+00 9.220988128875322598e-01
4.200000000000000178e+00 9.169251984639671393e-01
4.219999999999999751e+00 9.117897734594549997e-01
4.240000000000000213e+00 9.066921820042663782e-01
4.259999999999999787e+00 9.016320787075720045e-01
4.280000000000000249e+00 8.966091150991190029e-01
4.299999999999999822e+00 8.916229529146837418e-01
4.320000000000000284e+00 8.866732509657353489e-01
4.339999999999999858e+00 8.817596779917682426e-01
4.360000000000000320e+00 8.768818999658696267e-01
4.379999999999999893e+00 8.720395925062475184e-01
4.400000000000000355e+00 8.672324286256538617e-01
4.419999999999999929e+00 8.624600906944658307e-01
4.440000000000000391e+00 8.577222586417495576e-01
4.459999999999999964e+00 8.530186214622833552e-01
4.480000000000000426e+00 8.483488658771194402e-01
4.500000000000000000e+00 8.437126873769660307e-01
4.520000000000000462e+00 8.391097793498984991e-01
4.540000000000000036e+00 8.345398436536078934e-01
4.560000000000000497e+00 8.300025802179605838e-01
4.580000000000000071e+00 8.254976971386374096e-01
4.600000000000000533e+00 8.210249007620791240e-01
4.620000000000000107e+00 8.165839052930864428e-01
4.639999999999999680e+00 8.121744233697482107e-01
4.660000000000000142e+00 8.077961751776280286e-01
4.679999999999999716e+00 8.034488795220676716e-01
4.700000000000000178e+00 7.991322624416358211e-01
4.719999999999999751e+00 7.948460487852901935e-01
4.740000000000000213e+00 7.905899703177878823e-01
4.759999999999999787e+00 7.863637578090091340e-01
4.780000000000000249e+00 7.821671486240721061e-01
4.799999999999999822e+00 7.779998793321980521e-01
4.820000000000000284e+00 7.738616927743319218e-01
4.839999999999999858e+00 7.697523311987284345e-01
4.860000000000000320e+00 7.656715427989082556e-01
4.879999999999999893e+00 7.616190753832542404e-01
4.900000000000000355e+00 7.575946823761665616e-01
4.919999999999999929e+00 7.535981170287723296e-01
4.940000000000000391e+00 7.496291378761780200e-01
4.959999999999999964e+00 7.456875034964931537e-01
4.980000000000000426e+00 7.417729774171086810e-01
5.000000000000000000e+00 7.378853234290575491e-01
5.020000000000000462e+00 7.340243099353025436e-01
5.040000000000000036e+00 7.301897058275257368e-01
5.060000000000000497e+00 7.263812842694412630e-01
5.080000000000000071e+00 7.225988191429599805e-01
5.100000000000000533e+00 7.188420882595505379e-01
5.120000000000000107e+00 7.151108703828265023e-01
5.139999999999999680e+00 7.114049478610194877e-01
5.160000000000000142e+00 7.077241042328653586e-01
5.179999999999999716e+00 7.040681262742740643e-01
5.200000000000000178e+00 7.004368021945005518e-01
5.219999999999999751e+00 6.968299230901197072e-01
5.240000000000000213e+00 6.932472817383051877e-01
5.259999999999999787e+00 6.896886734512437389e-01
5.280000000000000249e+00 6.861538954734448525e-01
5.299999999999999822e+00 6.826427472297633692e-01
5.320000000000000284e+00 6.791550303334964456e-01
5.339999999999999858e+00 6.756905482212065550e-01
5.360000000000000320e+00 6.722491067784791552e-01
5.379999999999999893e+00 6.688305133547289838e-01
5.400000000000000355e+00 6.654345780133751331e-01
5.419999999999999929e+00 6.620611119198236416e-01
5.440000000000000391e+00 6.587099292229063874e-01
5.459999999999999964e+00 6.553808448092638406e-01
5.480000000000000426e+00 6.520736768227572977e-01
5.500000000000000000e+00 6.487882437784774359e-01
5.520000000000000462e+00 6.455243677269462133e-01
5.540000000000000036e+00 6.422818707209997369e-01
5.560000000000000497e+00 6.390605786314651482e-01
5.580000000000000071e+00 6.358603169601575456e-01
5.600000000000000533e+00 6.326809153138415187e-01
5.620000000000000107e+00 6.295222025565847535e-01
5.639999999999999680e+00 6.263840119486917546e-01
5.660000000000000142e+00 6.232661756316600909e-01
5.679999999999999716e+00 6.201685304388793174e-01
5.700000000000000178e+00 6.170909117064405924e-01
5.719999999999999751e+00 6.140331597622946669e-01
5.740000000000000213e+00 6.109951130561396271e-01
5.759999999999999787e+00 6.079766153338531653e-01
5.780000000000000249e+00 6.049775080796906401e-01
5.799999999999999822e+00 6.019976383826911581e-01
5.820000000000000284e+00 5.990368506844161445e-01
5.839999999999999858e+00 5.960949953441376792e-01
5.860000000000000320e+00 5.931719196853336706e-01
5.879999999999999893e+00 5.902674772663988323e-01
5.900000000000000355e+00 5.873815182190756934e-01
5.919999999999999929e+00 5.845138992315417337e-01
5.940000000000000391e+00 5.816644731719582406e-01
5.959999999999999964e+00 5.788330997906963038e-01
5.980000000000000426e+00 5.760196346221522212e-01
6.000000000000000000e+00 5.732239404130167193e-01
6.020000000000000462e+00 5.704458752954816303e-01
6.040000000000000036e+00 5.676853049483610025e-01
6.060000000000000497e+00 5.649420900347946750e-01
6.080000000000000071e+00 5.622160991031783794e-01
6.100000000000000533e+00 5.595071952824277606e-01
6.120000000000000107e+00 5.568152499295867530e-01
6.140000000000000568e+00 5.541401285757006079e-01
6.160000000000000142e+00 5.514817053271130476e-01
6.179999999999999716e+00 5.488398480549541159e-01
6.200000000000000178e+00 5.462144335570721099e-01
6.219999999999999751e+00 5.436053319840867815e-01
6.240000000000000213e+00 5.410124227690659149e-01
6.259999999999999787e+00 5.384355782830697601e-01
6.280000000000000249e+00 5.358746805395839807e-01
6.299999999999999822e+00 5.333296040724351261e-01
6.320000000000000284e+00 5.308002334221744167e-01
6.339999999999999858e+00 5.282864452291931023e-01
6.360000000000000320e+00 5.257881265091723932e-01
6.379999999999999893e+00 5.233051559541764819e-01
6.400000000000000355e+00 5.208374230044673370e-01
6.419999999999999929e+00 5.183848083502935467e-01
6.440000000000000391e+00 5.159472038072961952e-01
6.459999999999999964e+00 5.135244920116656120e-01
6.480000000000000426e+00 5.111165671065479588e-01
6.500000000000000000e+00 5.087233136231660291e-01
6.520000000000000462e+00 5.063446279855805532e-01
6.540000000000000036e+00 5.039803965703157917e-01
6.560000000000000497e+00 5.016305180370190797e-01
6.580000000000000071e+00 4.992948805590590178e-01
6.600000000000000533e+00 4.969733849875713205e-01
6.620000000000000107e+00 4.946659212454250221e-01
6.640000000000000568e+00 4.923723923323433671e-01
6.660000000000000142e+00 4.900926898745577298e-01
6.679999999999999716e+00 4.878267189786471003e-01
6.700000000000000178e+00 4.855743729291271960e-01
6.719999999999999751e+00 4.833355588988426654e-01
6.740000000000000213e+00 4.811101717866613225e-01
6.759999999999999787e+00 4.788981207922150540e-01
6.780000000000000249e+00 4.766993023857818979e-01
6.799999999999999822e+00 4.745136277553941850e-01
6.820000000000000284e+00 4.723409949008868236e-01
6.839999999999999858e+00 4.701813169613666132e-01
6.860000000000000320e+00 4.680344934253056755e-01
6.879999999999999893e+00 4.659004393465826510e-01
6.900000000000000355e+00 4.637790556624354354e-01
6.919999999999999929e+00 4.616702593062243509e-01
6.940000000000000391e+00 4.595739526249450480e-01
6.959999999999999964e+00 4.574900543971295863e-01
6.980000000000000426e+00 4.554184683415152812e-01
7.000000000000000000e+00 4.533591150484591603e-01
7.020000000000000462e+00 4.513118995712405157e-01
7.040000000000000036e+00 4.492767442796217203e-01
7.060000000000000497e+00 4.472535555251662132e-01
7.080000000000000071e+00 4.452422574255338050e-01
7.100000000000000533e+00 4.432427575950772525e-01
7.120000000000000107e+00 4.412549818687375724e-01
7.140000000000000568e+00 4.392788390890523531e-01
7.160000000000000142e+00 4.373142567784903401e-01
7.179999999999999716e+00 4.353611449738880590e-01
7.200000000000000178e+00 4.334194328563316656e-01
7.219999999999999751e+00 4.314890316239124446e-01
7.240000000000000213e+00 4.295698720882507038e-01
7.259999999999999787e+00 4.276618665763216587e-01
7.280000000000000249e+00 4.257649475029927078e-01
7.299999999999999822e+00 4.238790282925459785e-01
7.320000000000000284e+00 4.220040429365961021e-01
7.339999999999999858e+00 4.201399059257900359e-01
7.360000000000000320e+00 4.182865528027531754e-01
7.379999999999999893e+00 4.164438990943011842e-01
7.400000000000000355e+00 4.146118818690790464e-01
7.419999999999999929e+00 4.127904176604638153e-01
7.440000000000000391e+00 4.109794450388535858e-01
7.459999999999999964e+00 4.091788815152945791e-01
7.480000000000000426e+00 4.073886671383805114e-01
7.500000000000000000e+00 4.056087203684807241e-01
7.520000000000000462e+00 4.038389827095140716e-01
7.540000000000000036e+00 4.020793735435081451e-01
7.560000000000000497e+00 4.003298358075194630e-01
7.580000000000000071e+00 3.985902897780588261e-01
7.600000000000000533e+00 3.968606798037842553e-01
7.620000000000000107e+00 3.951409270291731946e-01
7.640000000000000568e+00 3.934309771935978195e-01
7.660000000000000142e+00 3.917307522834443390e-01
7.679999999999999716e+00 3.900401994085331281e-01
7.700000000000000178e+00 3.883592413717086855e-01
7.719999999999999751e+00 3.866878266335929681e-01
7.740000000000000213e+00 3.850258787884711098e-01
7.759999999999999787e+00 3.833733476287157216e-01
7.780000000000000249e+00 3.817301575156111793e-01
7.799999999999999822e+00 3.800962595548113554e-01
7.820000000000000284e+00 3.784715788505587097e-01
7.839999999999999858e+00 3.768560678038933021e-01
7.860000000000000320e+00 3.752496522385115330e-01
7.879999999999999893e+00 3.736522858335065700e-01
