# Electrodo circular de radio 6 mm y espesor 710.0 um.
# Volumen de simulacion (convencion z,y,x):
# N: 1024 x 1024 x 1024 | voxelSize:  0.02mm x 0.02mm x 0.02mm | FOV:  20.48mm x 20.48mm x 20.48mm
# 
# z [mm]		 delta[ppm]
0.000000000000000000e+00 4.139588456028048924e+00
2.000000000000000042e-02 4.110276987578234120e+00
4.000000000000000083e-02 4.080447308269505413e+00
5.999999999999999778e-02 4.050132434044722451e+00
8.000000000000000167e-02 4.019365287020337796e+00
1.000000000000000056e-01 3.988178655802133044e+00
1.199999999999999956e-01 3.956605111925306950e+00
1.400000000000000133e-01 3.924676945162795416e+00
1.600000000000000033e-01 3.892426082793668307e+00
1.799999999999999933e-01 3.859884037288395575e+00
2.000000000000000111e-01 3.827081829811286084e+00
2.200000000000000011e-01 3.794049945951722069e+00
2.399999999999999911e-01 3.760818266102601726e+00
2.600000000000000089e-01 3.727416029199065672e+00
2.800000000000000266e-01 3.693871770531756749e+00
2.999999999999999889e-01 3.660213294153722874e+00
3.200000000000000067e-01 3.626467618496060030e+00
3.400000000000000244e-01 3.592660957783973430e+00
3.599999999999999867e-01 3.558818675608740545e+00
3.800000000000000044e-01 3.524965275420110178e+00
4.000000000000000222e-01 3.491124361933767073e+00
4.199999999999999845e-01 3.457318640510766095e+00
4.400000000000000022e-01 3.423569886103638993e+00
4.600000000000000200e-01 3.389898951112593650e+00
4.799999999999999822e-01 3.356325741344771796e+00
5.000000000000000000e-01 3.322869231759713049e+00
5.200000000000000178e-01 3.289547448800188345e+00
5.400000000000000355e-01 3.256377493300960158e+00
5.600000000000000533e-01 3.223375528408264135e+00
5.799999999999999600e-01 3.190556808834741354e+00
5.999999999999999778e-01 3.157935673542865196e+00
6.199999999999999956e-01 3.125525580475566390e+00
6.400000000000000133e-01 3.093339103124801426e+00
6.600000000000000311e-01 3.061387969854596935e+00
6.800000000000000488e-01 3.029683063501038998e+00
7.000000000000000666e-01 2.998234464420972856e+00
7.199999999999999734e-01 2.967051452284071189e+00
7.399999999999999911e-01 2.936142552025219121e+00
7.600000000000000089e-01 2.905515537061007514e+00
7.800000000000000266e-01 2.875177477386223313e+00
8.000000000000000444e-01 2.845134743504136754e+00
8.200000000000000622e-01 2.815393055984905413e+00
8.399999999999999689e-01 2.785957489494053085e+00
8.599999999999999867e-01 2.756832523214415520e+00
8.800000000000000044e-01 2.728022044432594218e+00
9.000000000000000222e-01 2.699529399313996159e+00
9.200000000000000400e-01 2.671357395605575391e+00
9.400000000000000577e-01 2.643508353339429462e+00
9.599999999999999645e-01 2.615984106285761612e+00
9.799999999999999822e-01 2.588786052243257974e+00
1.000000000000000000e+00 2.561915152964890030e+00
1.020000000000000018e+00 2.535371983769034721e+00
1.040000000000000036e+00 2.509156731725654677e+00
1.060000000000000053e+00 2.483269244390969632e+00
1.080000000000000071e+00 2.457709026113622297e+00
1.100000000000000089e+00 2.432475285755486549e+00
1.120000000000000107e+00 2.407566931026985380e+00
1.140000000000000124e+00 2.382982615108395930e+00
1.159999999999999920e+00 2.358720728977224734e+00
1.179999999999999938e+00 2.334779446887253584e+00
1.199999999999999956e+00 2.311156716684625412e+00
1.219999999999999973e+00 2.287850304137223123e+00
1.239999999999999991e+00 2.264857781273096116e+00
1.260000000000000009e+00 2.242176569580489165e+00
1.280000000000000027e+00 2.219803926422226237e+00
1.300000000000000044e+00 2.197736987148282584e+00
1.320000000000000062e+00 2.175972749663030559e+00
1.340000000000000080e+00 2.154508115507802746e+00
1.360000000000000098e+00 2.133339872667224135e+00
1.380000000000000115e+00 2.112464735690303019e+00
1.400000000000000133e+00 2.091879326835004882e+00
1.419999999999999929e+00 2.071580215303194361e+00
1.439999999999999947e+00 2.051563896824333710e+00
1.459999999999999964e+00 2.031826832083247769e+00
1.479999999999999982e+00 2.012365424849690498e+00
1.500000000000000000e+00 1.993176059678759771e+00
1.520000000000000018e+00 1.974255078689840293e+00
1.540000000000000036e+00 1.955598818618471180e+00
1.560000000000000053e+00 1.937203586349422801e+00
1.580000000000000071e+00 1.919065695396025673e+00
1.600000000000000089e+00 1.901181440286150659e+00
1.620000000000000107e+00 1.883547132541242508e+00
1.640000000000000124e+00 1.866159074012498476e+00
1.660000000000000142e+00 1.849013592427175334e+00
1.679999999999999938e+00 1.832107013764953551e+00
1.699999999999999956e+00 1.815435697433985140e+00
1.719999999999999973e+00 1.798996007774647632e+00
1.739999999999999991e+00 1.782784348922348494e+00
1.760000000000000009e+00 1.766797135518216155e+00
1.780000000000000027e+00 1.751030827310203541e+00
1.800000000000000044e+00 1.735481899147019114e+00
1.820000000000000062e+00 1.720146875363584460e+00
1.840000000000000080e+00 1.705022299127126661e+00
1.860000000000000098e+00 1.690104766647737788e+00
1.880000000000000115e+00 1.675390895942371561e+00
1.900000000000000133e+00 1.660877360906163114e+00
1.919999999999999929e+00 1.646560859553252376e+00
1.939999999999999947e+00 1.632438147979735854e+00
1.959999999999999964e+00 1.618506008137423846e+00
1.979999999999999982e+00 1.604761281714746968e+00
2.000000000000000000e+00 1.591200837493485176e+00
2.020000000000000018e+00 1.577821605169832164e+00
2.040000000000000036e+00 1.564620542341764287e+00
2.060000000000000053e+00 1.551594668288545753e+00
2.080000000000000071e+00 1.538741030631149087e+00
2.100000000000000089e+00 1.526056739085010827e+00
2.120000000000000107e+00 1.513538931834026435e+00
2.140000000000000124e+00 1.501184809268128584e+00
2.160000000000000142e+00 1.488991600106833957e+00
2.180000000000000160e+00 1.476956595130345162e+00
2.200000000000000178e+00 1.465077113087243976e+00
2.220000000000000195e+00 1.453350534425166707e+00
2.240000000000000213e+00 1.441774267013354427e+00
2.260000000000000231e+00 1.430345779876655454e+00
2.280000000000000249e+00 1.419062568762631926e+00
2.300000000000000266e+00 1.407922189880546071e+00
2.319999999999999840e+00 1.396922225339425117e+00
2.339999999999999858e+00 1.386060316891844169e+00
2.359999999999999876e+00 1.375334131268736160e+00
2.379999999999999893e+00 1.364741393926097723e+00
2.399999999999999911e+00 1.354279854299515806e+00
2.419999999999999929e+00 1.343947319550523600e+00
2.439999999999999947e+00 1.333741619763453734e+00
2.459999999999999964e+00 1.323660641686872586e+00
2.479999999999999982e+00 1.313702293892973882e+00
2.500000000000000000e+00 1.303864540508421266e+00
2.520000000000000018e+00 1.294145366356389770e+00
2.540000000000000036e+00 1.284542810670163959e+00
2.560000000000000053e+00 1.275054932235840877e+00
2.580000000000000071e+00 1.265679843081230160e+00
2.600000000000000089e+00 1.256415673637288677e+00
2.620000000000000107e+00 1.247260606394137827e+00
2.640000000000000124e+00 1.238212841097499961e+00
2.660000000000000142e+00 1.229270628363024587e+00
2.680000000000000160e+00 1.220432234924230031e+00
2.700000000000000178e+00 1.211695977195781593e+00
2.720000000000000195e+00 1.203060186587836311e+00
2.740000000000000213e+00 1.194523243008514868e+00
2.760000000000000231e+00 1.186083540259841307e+00
2.780000000000000249e+00 1.177739519469271467e+00
2.800000000000000266e+00 1.169489634581019954e+00
2.819999999999999840e+00 1.161332385706192794e+00
2.839999999999999858e+00 1.153266284723688084e+00
2.859999999999999876e+00 1.145289888538246093e+00
2.879999999999999893e+00 1.137401764803803506e+00
2.899999999999999911e+00 1.129600525078595208e+00
2.919999999999999929e+00 1.121884790684319455e+00
2.939999999999999947e+00 1.114253225747226850e+00
2.959999999999999964e+00 1.106704503205273582e+00
2.979999999999999982e+00 1.099237337724085606e+00
3.000000000000000000e+00 1.091850451864734728e+00
3.020000000000000018e+00 1.084542608863367841e+00
3.040000000000000036e+00 1.077312578971178825e+00
3.060000000000000053e+00 1.070159172086447397e+00
3.080000000000000071e+00 1.063081204278784719e+00
3.100000000000000089e+00 1.056077530262311326e+00
3.120000000000000107e+00 1.049147010115244694e+00
3.140000000000000124e+00 1.042288541582952588e+00
3.160000000000000142e+00 1.035501027004467112e+00
3.180000000000000160e+00 1.028783405434188447e+00
3.200000000000000178e+00 1.022134619785940668e+00
3.220000000000000195e+00 1.015553648762166139e+00
3.240000000000000213e+00 1.009039474226653521e+00
3.260000000000000231e+00 1.002591112930110606e+00
3.280000000000000249e+00 9.962075841218199779e-01
3.300000000000000266e+00 9.898879410605520013e-01
3.320000000000000284e+00 9.836312388758947645e-01
3.339999999999999858e+00 9.774365658535738577e-01
3.359999999999999876e+00 9.713030115563615619e-01
3.379999999999999893e+00 9.652296978729471011e-01
3.399999999999999911e+00 9.592157474088380820e-01
3.419999999999999929e+00 9.532603142880519131e-01
3.439999999999999947e+00 9.473625528235838367e-01
3.459999999999999964e+00 9.415216480613118888e-01
3.479999999999999982e+00 9.357367847401059091e-01
3.500000000000000000e+00 9.300071775674618735e-01
3.520000000000000018e+00 9.243320404785257960e-01
3.540000000000000036e+00 9.187106166331105994e-01
3.560000000000000053e+00 9.131421479834000987e-01
3.580000000000000071e+00 9.076259049821201463e-01
3.600000000000000089e+00 9.021611564679256068e-01
3.620000000000000107e+00 8.967471990746453958e-01
3.640000000000000124e+00 8.913833274438155430e-01
3.660000000000000142e+00 8.860688633250844992e-01
3.680000000000000160e+00 8.808031261245899968e-01
3.700000000000000178e+00 8.755854616867169149e-01
3.720000000000000195e+00 8.704152131875407816e-01
3.740000000000000213e+00 8.652917495882992416e-01
3.760000000000000231e+00 8.602144368823111398e-01
3.780000000000000249e+00 8.551826662106846166e-01
3.800000000000000266e+00 8.501958254716402985e-01
3.820000000000000284e+00 8.452533270891022799e-01
3.839999999999999858e+00 8.403545799926031012e-01
3.859999999999999876e+00 8.354990170295715224e-01
3.879999999999999893e+00 8.306860673244564897e-01
3.899999999999999911e+00 8.259151833256870301e-01
3.919999999999999929e+00 8.211858135519214397e-01
3.939999999999999947e+00 8.164974292647967369e-01
3.959999999999999964e+00 8.118494976106908068e-01
3.979999999999999982e+00 8.072415079105113023e-01
4.000000000000000000e+00 8.026729452046468261e-01
4.020000000000000462e+00 7.981433161512178076e-01
4.040000000000000036e+00 7.936521229823112478e-01
4.060000000000000497e+00 7.891988890022836323e-01
4.080000000000000071e+00 7.847831329626833163e-01
4.099999999999999645e+00 7.804043941523336470e-01
4.120000000000000107e+00 7.760622071987907100e-01
4.139999999999999680e+00 7.717561267420639526e-01
4.160000000000000142e+00 7.674857026698049811e-01
4.179999999999999716e+00 7.632505043666735212e-01
4.200000000000000178e+00 7.590500963908350940e-01
4.219999999999999751e+00 7.548840622911684450e-01
4.240000000000000213e+00 7.507519807319819050e-01
4.259999999999999787e+00 7.466534488703625572e-01
4.280000000000000249e+00 7.425880589364834972e-01
4.299999999999999822e+00 7.385554211635355637e-01
4.320000000000000284e+00 7.345551408303050422e-01
4.339999999999999858e+00 7.305868407362903216e-01
4.360000000000000320e+00 7.266501387136593548e-01
4.379999999999999893e+00 7.227446696402994863e-01
4.400000000000000355e+00 7.188700634275765333e-01
4.419999999999999929e+00 7.150259665641945928e-01
4.440000000000000391e+00 7.112120205866448996e-01
4.459999999999999964e+00 7.074278831468797657e-01
4.480000000000000426e+00 7.036732069716752358e-01
4.500000000000000000e+00 6.999476604472363306e-01
4.520000000000000462e+00 6.962509070741316197e-01
4.540000000000000036e+00 6.925826255621246874e-01
4.560000000000000497e+00 6.889424897866466280e-01
4.580000000000000071e+00 6.853301883872493505e-01
4.600000000000000533e+00 6.817454052320638391e-01
4.620000000000000107e+00 6.781878385133904841e-01
4.639999999999999680e+00 6.746571817259187087e-01
4.660000000000000142e+00 6.711531422531050728e-01
4.679999999999999716e+00 6.676754228653628553e-01
4.700000000000000178e+00 6.642237397910085717e-01
4.719999999999999751e+00 6.607978047399775123e-01
4.740000000000000213e+00 6.573973424532227883e-01
4.759999999999999787e+00 6.540220732579804519e-01
4.780000000000000249e+00 6.506717300896124323e-01
4.799999999999999822e+00 6.473460415837842818e-01
4.820000000000000284e+00 6.440447485648763681e-01
4.839999999999999858e+00 6.407675876808825999e-01
4.860000000000000320e+00 6.375143073526137183e-01
4.879999999999999893e+00 6.342846519564856456e-01
4.900000000000000355e+00 6.310783772288481863e-01
4.919999999999999929e+00 6.278952350022952711e-01
4.940000000000000391e+00 6.247349880595500782e-01
4.959999999999999964e+00 6.215973954282856262e-01
4.980000000000000426e+00 6.184822266790868106e-01
5.000000000000000000e+00 6.153892477842519693e-01
5.020000000000000462e+00 6.123182348544746745e-01
5.040000000000000036e+00 6.092689605664061148e-01
5.060000000000000497e+00 6.062412073327979600e-01
5.080000000000000071e+00 6.032347543041265414e-01
5.100000000000000533e+00 6.002493899670001687e-01
5.120000000000000107e+00 5.972848997244956104e-01
5.139999999999999680e+00 5.943410779177311642e-01
5.160000000000000142e+00 5.914177159900594338e-01
5.179999999999999716e+00 5.885146139267993792e-01
5.200000000000000178e+00 5.856315690077693592e-01
5.219999999999999751e+00 5.827683866602465512e-01
5.240000000000000213e+00 5.799248698048468098e-01
5.259999999999999787e+00 5.771008291168588933e-01
5.280000000000000249e+00 5.742960729698117772e-01
5.299999999999999822e+00 5.715104171004162792e-01
5.320000000000000284e+00 5.687436751546827152e-01
5.339999999999999858e+00 5.659956677517780088e-01
5.360000000000000320e+00 5.632662136368903338e-01
5.379999999999999893e+00 5.605551381393700794e-01
5.400000000000000355e+00 5.578622649371106634e-01
5.419999999999999929e+00 5.551874239043864678e-01
5.440000000000000391e+00 5.525304434918449914e-01
5.459999999999999964e+00 5.498911579595349153e-01
5.480000000000000426e+00 5.472694003771579885e-01
5.500000000000000000e+00 5.446650092378417796e-01
5.520000000000000462e+00 5.420778220826223404e-01
5.540000000000000036e+00 5.395076814905748197e-01
5.560000000000000497e+00 5.369544293320839268e-01
5.580000000000000071e+00 5.344179121309856617e-01
5.600000000000000533e+00 5.318979759505093607e-01
5.620000000000000107e+00 5.293944711231377553e-01
5.639999999999999680e+00 5.269072477736965743e-01
5.660000000000000142e+00 5.244361599126881046e-01
5.679999999999999716e+00 5.219810616003152104e-01
5.700000000000000178e+00 5.195418103990870895e-01
5.719999999999999751e+00 5.171182641831939542e-01
5.740000000000000213e+00 5.147102839462054380e-01
5.759999999999999787e+00 5.123177312595210697e-01
5.780000000000000249e+00 5.099404704310321890e-01
5.799999999999999822e+00 5.075783666170022856e-01
5.820000000000000284e+00 5.052312873275905947e-01
5.839999999999999858e+00 5.028991011958149349e-01
5.860000000000000320e+00 5.005816788258734551e-01
5.879999999999999893e+00 4.982788922235073525e-01
5.900000000000000355e+00 4.959906149830591859e-01
5.919999999999999929e+00 4.937167223828549112e-01
5.940000000000000391e+00 4.914570909069747029e-01
5.959999999999999964e+00 4.892115990099360490e-01
5.980000000000000426e+00 4.869801259691575179e-01
6.000000000000000000e+00 4.847625533225404793e-01
6.020000000000000462e+00 4.825587630476245171e-01
6.040000000000000036e+00 4.803686396763247601e-01
6.060000000000000497e+00 4.781920677967985145e-01
6.080000000000000071e+00 4.760289348489128991e-01
6.100000000000000533e+00 4.738791279448274496e-01
6.120000000000000107e+00 4.717425373494634200e-01
6.140000000000000568e+00 4.696190526158246503e-01
6.160000000000000142e+00 4.675085667540258005e-01
6.179999999999999716e+00 4.654109716773804917e-01
6.200000000000000178e+00 4.633261630642624418e-01
6.219999999999999751e+00 4.612540351109652992e-01
6.240000000000000213e+00 4.591944860899848102e-01
6.259999999999999787e+00 4.571474124056577049e-01
6.280000000000000249e+00 4.551127148531556310e-01
6.299999999999999822e+00 4.530902919729042910e-01
6.320000000000000284e+00 4.510800470138911500e-01
6.339999999999999858e+00 4.490818805828402094e-01
6.360000000000000320e+00 4.470956983161755161e-01
6.379999999999999893e+00 4.451214028199159123e-01
6.400000000000000355e+00 4.431589020539310475e-01
6.419999999999999929e+00 4.412081005584874149e-01
6.440000000000000391e+00 4.392689085551951256e-01
6.459999999999999964e+00 4.373412324561302689e-01
6.480000000000000426e+00 4.354249846851463990e-01
6.500000000000000000e+00 4.335200734654544030e-01
6.520000000000000462e+00 4.316264133657675139e-01
6.540000000000000036e+00 4.297439143621952229e-01
6.560000000000000497e+00 4.278724931129655462e-01
6.580000000000000071e+00 4.260120612904441662e-01
6.600000000000000533e+00 4.241625375889891414e-01
6.620000000000000107e+00 4.223238353228656039e-01
6.640000000000000568e+00 4.204958751710565767e-01
6.660000000000000142e+00 4.186785720367994235e-01
6.679999999999999716e+00 4.168718485340091040e-01
6.700000000000000178e+00 4.150756211041214394e-01
6.719999999999999751e+00 4.132898142480316839e-01
6.740000000000000213e+00 4.115143458958849254e-01
6.759999999999999787e+00 4.097491423892817841e-01
6.780000000000000249e+00 4.079941230996010360e-01
6.799999999999999822e+00 4.062492161644958300e-01
6.820000000000000284e+00 4.045143423502498004e-01
6.839999999999999858e+00 4.027894315474704334e-01
6.860000000000000320e+00 4.010744058729209249e-01
6.879999999999999893e+00 3.993691969285527166e-01
6.900000000000000355e+00 3.976737281382161093e-01
6.919999999999999929e+00 3.959879327750451261e-01
6.940000000000000391e+00 3.943117355283667913e-01
6.959999999999999964e+00 3.926450713037217821e-01
6.980000000000000426e+00 3.909878660152180663e-01
7.000000000000000000e+00 3.893400561633727497e-01
7.020000000000000462e+00 3.877015688480686673e-01
7.040000000000000036e+00 3.860723421286529344e-01
7.060000000000000497e+00 3.844523042525848089e-01
7.080000000000000071e+00 3.828413948031385017e-01
7.100000000000000533e+00 3.812395431387525790e-01
7.120000000000000107e+00 3.796466903329293596e-01
7.140000000000000568e+00 3.780627668191896551e-01
7.160000000000000142e+00 3.764877151287209789e-01
7.179999999999999716e+00 3.749214667357544384e-01
7.200000000000000178e+00 3.733639655977323280e-01
7.219999999999999751e+00 3.718151441958303938e-01
7.240000000000000213e+00 3.702749478833988750e-01
7.259999999999999787e+00 3.687433101162431726e-01
7.280000000000000249e+00 3.672201776143057539e-01
7.299999999999999822e+00 3.657054847762233329e-01
7.320000000000000284e+00 3.641991796602235820e-01
7.339999999999999858e+00 3.627011975773661301e-01
7.360000000000000320e+00 3.612114878968240017e-01
7.379999999999999893e+00 3.597299868121003885e-01
7.400000000000000355e+00 3.582566449769123418e-01
7.419999999999999929e+00 3.567913994385505938e-01
7.440000000000000391e+00 3.553342021097775638e-01
7.459999999999999964e+00 3.538849908633769359e-01
7.480000000000000426e+00 3.524437188465307513e-01
7.500000000000000000e+00 3.510103247304900975e-01
7.520000000000000462e+00 3.495847628730721635e-01
7.540000000000000036e+00 3.481669727172606588e-01
7.560000000000000497e+00 3.467569098085478974e-01
7.580000000000000071e+00 3.453545143361176351e-01
7.600000000000000533e+00 3.439597430109597176e-01
7.620000000000000107e+00 3.425725367431629587e-01
7.640000000000000568e+00 3.411928533878082481e-01
7.660000000000000142e+00 3.398206345517540972e-01
7.679999999999999716e+00 3.384558392134986993e-01
7.700000000000000178e+00 3.370984096526942198e-01
7.719999999999999751e+00 3.357483059513052259e-01
7.740000000000000213e+00 3.344054710389285368e-01
7.759999999999999787e+00 3.330698660817357215e-01
7.780000000000000249e+00 3.317414346365182287e-01
7.799999999999999822e+00 3.304201389350632234e-01
7.820000000000000284e+00 3.291059231396996076e-01
7.839999999999999858e+00 3.277987505298926574e-01
7.860000000000000320e+00 3.264985658518855249e-01
7.879999999999999893e+00 3.252053334155181608e-01
