# Electrodo circular de radio 6 mm y espesor 710.0 um.
# Volumen de simulacion (convencion z,y,x):
# N: 1024 x 1024 x 1024 | voxelSize:  0.02mm x 0.02mm x 0.02mm | FOV:  20.48mm x 20.48mm x 20.48mm
# 
# z [mm]		 delta[ppm]
0.000000000000000000e+00 2.362987110282090963e+00
2.000000000000000042e-02 2.360612830578598498e+00
4.000000000000000083e-02 2.358166077702983809e+00
5.999999999999999778e-02 2.355647245499962850e+00
8.000000000000000167e-02 2.353056727283417082e+00
1.000000000000000056e-01 2.350394926452159527e+00
1.199999999999999956e-01 2.347662255577395385e+00
1.400000000000000133e-01 2.344859138772019236e+00
1.600000000000000033e-01 2.341986008287520793e+00
1.799999999999999933e-01 2.339043307873299060e+00
2.000000000000000111e-01 2.336031488870097483e+00
2.200000000000000011e-01 2.332951013900585124e+00
2.399999999999999911e-01 2.329802352770012241e+00
2.600000000000000089e-01 2.326585986339774870e+00
2.800000000000000266e-01 2.323302402233232478e+00
2.999999999999999889e-01 2.319952098887398062e+00
3.200000000000000067e-01 2.316535581078205119e+00
3.400000000000000244e-01 2.313053364144659341e+00
3.599999999999999867e-01 2.309505969332348752e+00
3.800000000000000044e-01 2.305893928188599951e+00
4.000000000000000222e-01 2.302217777730005466e+00
4.199999999999999845e-01 2.298478065005671311e+00
4.400000000000000022e-01 2.294675342090444659e+00
4.600000000000000200e-01 2.290810170814072233e+00
4.799999999999999822e-01 2.286883117584454617e+00
5.000000000000000000e-01 2.282894758279953251e+00
5.200000000000000178e-01 2.278845672905450037e+00
5.400000000000000355e-01 2.274736450645268082e+00
5.600000000000000533e-01 2.270567684355988103e+00
5.799999999999999600e-01 2.266339975777163396e+00
5.999999999999999778e-01 2.262053929864173529e+00
6.199999999999999956e-01 2.257710160153943324e+00
6.400000000000000133e-01 2.253309282941763136e+00
6.600000000000000311e-01 2.248851922799011582e+00
6.800000000000000488e-01 2.244338706597586608e+00
7.000000000000000666e-01 2.239770269176587281e+00
7.199999999999999734e-01 2.235147247218378652e+00
7.399999999999999911e-01 2.230470285061048052e+00
7.600000000000000089e-01 2.225740028429990858e+00
7.800000000000000266e-01 2.220957130392873236e+00
8.000000000000000444e-01 2.216122244950909259e+00
8.200000000000000622e-01 2.211236033132925272e+00
8.399999999999999689e-01 2.206299156450440613e+00
8.599999999999999867e-01 2.201312283127336400e+00
8.800000000000000044e-01 2.196276081423081283e+00
9.000000000000000222e-01 2.191191225994367553e+00
9.200000000000000400e-01 2.186058391090788700e+00
9.400000000000000577e-01 2.180878257044753799e+00
9.599999999999999645e-01 2.175651503344074200e+00
9.799999999999999822e-01 2.170378815246325477e+00
1.000000000000000000e+00 2.165060876732855633e+00
1.020000000000000018e+00 2.159698377243639111e+00
1.040000000000000036e+00 2.154292004517345926e+00
1.060000000000000053e+00 2.148842451442659840e+00
1.080000000000000071e+00 2.143350408789053141e+00
1.100000000000000089e+00 2.137816572170415874e+00
1.120000000000000107e+00 2.132241634671341757e+00
1.140000000000000124e+00 2.126626293918801203e+00
1.159999999999999920e+00 2.120971244608763406e+00
1.179999999999999938e+00 2.115277185681540661e+00
1.199999999999999956e+00 2.109544812753702203e+00
1.219999999999999973e+00 2.103774825392615622e+00
1.239999999999999991e+00 2.097967919458611163e+00
1.260000000000000009e+00 2.092124794474166105e+00
1.280000000000000027e+00 2.086246145881406555e+00
1.300000000000000044e+00 2.080332672501236768e+00
1.320000000000000062e+00 2.074385068711317004e+00
1.340000000000000080e+00 2.068404031990358050e+00
1.360000000000000098e+00 2.062390255021792296e+00
1.380000000000000115e+00 2.056344433318360476e+00
1.400000000000000133e+00 2.050267257256732201e+00
1.419999999999999929e+00 2.044159419777404008e+00
1.439999999999999947e+00 2.038021608355638392e+00
1.459999999999999964e+00 2.031854512771580801e+00
1.479999999999999982e+00 2.025658817022923497e+00
1.500000000000000000e+00 2.019435207160063861e+00
1.520000000000000018e+00 2.013184363145992251e+00
1.540000000000000036e+00 2.006906966751194510e+00
1.560000000000000053e+00 2.000603693366305169e+00
1.580000000000000071e+00 1.994275219951402667e+00
1.600000000000000089e+00 1.987922216807029852e+00
1.620000000000000107e+00 1.981545355572410738e+00
1.640000000000000124e+00 1.975145300960514660e+00
1.660000000000000142e+00 1.968722718799634785e+00
1.679999999999999938e+00 1.962278267738229998e+00
1.699999999999999956e+00 1.955812607324225683e+00
1.719999999999999973e+00 1.949326389685420047e+00
1.739999999999999991e+00 1.942820267640768206e+00
1.760000000000000009e+00 1.936294886362219803e+00
1.780000000000000027e+00 1.929750891512148403e+00
1.800000000000000044e+00 1.923188920892542564e+00
1.820000000000000062e+00 1.916609612602668156e+00
1.840000000000000080e+00 1.910013596681596759e+00
1.860000000000000098e+00 1.903401503280094165e+00
1.880000000000000115e+00 1.896773954302518161e+00
1.900000000000000133e+00 1.890131571586870729e+00
1.919999999999999929e+00 1.883474968552135476e+00
1.939999999999999947e+00 1.876804758380347549e+00
1.959999999999999964e+00 1.870121545675526908e+00
1.979999999999999982e+00 1.863425934641502746e+00
2.000000000000000000e+00 1.856718520758660951e+00
2.020000000000000018e+00 1.849999898951222077e+00
2.040000000000000036e+00 1.843270655288043125e+00
2.060000000000000053e+00 1.836531375132962829e+00
2.080000000000000071e+00 1.829782634875969816e+00
2.100000000000000089e+00 1.823025010060152828e+00
2.120000000000000107e+00 1.816259067149617712e+00
2.140000000000000124e+00 1.809485371626492256e+00
2.160000000000000142e+00 1.802704479802010429e+00
2.180000000000000160e+00 1.795916946876969789e+00
2.200000000000000178e+00 1.789123318802465779e+00
2.220000000000000195e+00 1.782324140297124160e+00
2.240000000000000213e+00 1.775519946764007706e+00
2.260000000000000231e+00 1.768711272257887268e+00
2.280000000000000249e+00 1.761898641464899828e+00
2.300000000000000266e+00 1.755082577613046757e+00
2.319999999999999840e+00 1.748263594521242137e+00
2.339999999999999858e+00 1.741442204446164821e+00
2.359999999999999876e+00 1.734618910207381237e+00
2.379999999999999893e+00 1.727794212963624787e+00
2.399999999999999911e+00 1.720968604420713310e+00
2.419999999999999929e+00 1.714142574530263197e+00
2.439999999999999947e+00 1.707316603787206954e+00
2.459999999999999964e+00 1.700491170843877242e+00
2.479999999999999982e+00 1.693666744903946864e+00
2.500000000000000000e+00 1.686843793244788614e+00
2.520000000000000018e+00 1.680022773714720419e+00
2.540000000000000036e+00 1.673204142156477614e+00
2.560000000000000053e+00 1.666388345014689909e+00
2.580000000000000071e+00 1.659575826653244768e+00
2.600000000000000089e+00 1.652767022079979498e+00
2.620000000000000107e+00 1.645962364150671764e+00
2.640000000000000124e+00 1.639162276417968966e+00
2.660000000000000142e+00 1.632367180214677971e+00
2.680000000000000160e+00 1.625577487634017215e+00
2.700000000000000178e+00 1.618793608484838220e+00
2.720000000000000195e+00 1.612015943410300522e+00
2.740000000000000213e+00 1.605244890707610006e+00
2.760000000000000231e+00 1.598480839592308023e+00
2.780000000000000249e+00 1.591724176875044749e+00
2.800000000000000266e+00 1.584975280378678519e+00
2.819999999999999840e+00 1.578234525464595084e+00
2.839999999999999858e+00 1.571502278609864467e+00
2.859999999999999876e+00 1.564778903775559282e+00
2.879999999999999893e+00 1.558064756151260388e+00
2.899999999999999911e+00 1.551360188357764125e+00
2.919999999999999929e+00 1.544665544366319310e+00
2.939999999999999947e+00 1.537981165528051974e+00
2.959999999999999964e+00 1.531307384675315575e+00
2.979999999999999982e+00 1.524644531970175132e+00
3.000000000000000000e+00 1.517992929195294938e+00
3.020000000000000018e+00 1.511352895413764719e+00
3.040000000000000036e+00 1.504724741456984649e+00
3.060000000000000053e+00 1.498108775388069080e+00
3.080000000000000071e+00 1.491505297194274604e+00
3.100000000000000089e+00 1.484914604046164932e+00
3.120000000000000107e+00 1.478336985202127529e+00
3.140000000000000124e+00 1.471772727055478569e+00
3.160000000000000142e+00 1.465222108258676936e+00
3.180000000000000160e+00 1.458685404550478459e+00
3.200000000000000178e+00 1.452162884107486285e+00
3.220000000000000195e+00 1.445654812143470913e+00
3.240000000000000213e+00 1.439161446495912156e+00
3.260000000000000231e+00 1.432683041989546879e+00
3.280000000000000249e+00 1.426219846265639468e+00
3.300000000000000266e+00 1.419772103901763227e+00
3.320000000000000284e+00 1.413340052491569132e+00
3.339999999999999858e+00 1.406923926512787748e+00
3.359999999999999876e+00 1.400523953665290477e+00
3.379999999999999893e+00 1.394140358479274200e+00
3.399999999999999911e+00 1.387773358919469402e+00
3.419999999999999929e+00 1.381423169725408018e+00
3.439999999999999947e+00 1.375089999289646148e+00
3.459999999999999964e+00 1.368774052722053103e+00
3.479999999999999982e+00 1.362475529009936182e+00
3.500000000000000000e+00 1.356194623798193888e+00
3.520000000000000018e+00 1.349931526839322160e+00
3.540000000000000036e+00 1.343686424481274511e+00
3.560000000000000053e+00 1.337459497415319554e+00
3.580000000000000071e+00 1.331250922863385533e+00
3.600000000000000089e+00 1.325060872631836695e+00
3.620000000000000107e+00 1.318889514990079448e+00
3.640000000000000124e+00 1.312737013038280498e+00
3.660000000000000142e+00 1.306603526268997228e+00
3.680000000000000160e+00 1.300489209256952661e+00
3.700000000000000178e+00 1.294394212895375151e+00
3.720000000000000195e+00 1.288318683415982102e+00
3.740000000000000213e+00 1.282262763291718288e+00
3.760000000000000231e+00 1.276226590595101795e+00
3.780000000000000249e+00 1.270210299559036971e+00
3.800000000000000266e+00 1.264214020281716699e+00
3.820000000000000284e+00 1.258237878937128240e+00
3.839999999999999858e+00 1.252281997834781002e+00
3.859999999999999876e+00 1.246346495271492216e+00
3.879999999999999893e+00 1.240431485954209823e+00
3.899999999999999911e+00 1.234537080484641391e+00
3.919999999999999929e+00 1.228663386153509673e+00
3.939999999999999947e+00 1.222810506049561319e+00
3.959999999999999964e+00 1.216978540233585315e+00
3.979999999999999982e+00 1.211167584463316738e+00
4.000000000000000000e+00 1.205377731755633119e+00
4.020000000000000462e+00 1.199609070718810289e+00
4.040000000000000036e+00 1.193861687511304170e+00
4.060000000000000497e+00 1.188135663772837747e+00
4.080000000000000071e+00 1.182431078988217088e+00
4.099999999999999645e+00 1.176748008008686952e+00
4.120000000000000107e+00 1.171086523829246051e+00
4.139999999999999680e+00 1.165446694691657292e+00
4.160000000000000142e+00 1.159828587283839640e+00
4.179999999999999716e+00 1.154232263415877036e+00
4.200000000000000178e+00 1.148657783650015141e+00
4.219999999999999751e+00 1.143105203541031845e+00
4.240000000000000213e+00 1.137574577705456447e+00
4.259999999999999787e+00 1.132065955617592712e+00
4.280000000000000249e+00 1.126579386126566273e+00
4.299999999999999822e+00 1.121114912799294761e+00
4.320000000000000284e+00 1.115672578894060685e+00
4.339999999999999858e+00 1.110252422241638115e+00
4.360000000000000320e+00 1.104854480684114515e+00
4.379999999999999893e+00 1.099478786485377224e+00
4.400000000000000355e+00 1.094125372243921257e+00
4.419999999999999929e+00 1.088794264823914171e+00
4.440000000000000391e+00 1.083485491750718621e+00
4.459999999999999964e+00 1.078199074653699796e+00
4.480000000000000426e+00 1.072935036153323196e+00
4.500000000000000000e+00 1.067693392806766006e+00
4.520000000000000462e+00 1.062474162495451013e+00
4.540000000000000036e+00 1.057277356864582574e+00
4.560000000000000497e+00 1.052102989219980023e+00
4.580000000000000071e+00 1.046951066452587842e+00
4.600000000000000533e+00 1.041821597453543635e+00
4.620000000000000107e+00 1.036714584514668580e+00
4.639999999999999680e+00 1.031630032270761443e+00
4.660000000000000142e+00 1.026567938567047200e+00
4.679999999999999716e+00 1.021528303937673687e+00
4.700000000000000178e+00 1.016511121931078065e+00
4.719999999999999751e+00 1.011516389133762628e+00
4.740000000000000213e+00 1.006544094944457957e+00
4.759999999999999787e+00 1.001594232152262842e+00
4.780000000000000249e+00 9.966667861504796555e-01
4.799999999999999822e+00 9.917617460782620631e-01
4.820000000000000284e+00 9.868790934649557256e-01
4.839999999999999858e+00 9.820188139443980502e-01
4.860000000000000320e+00 9.771808853205762313e-01
4.879999999999999893e+00 9.723652898637895614e-01
4.900000000000000355e+00 9.675720017883878699e-01
4.919999999999999929e+00 9.628010001400448825e-01
4.940000000000000391e+00 9.580522556762740560e-01
4.959999999999999964e+00 9.533257443541365284e-01
4.980000000000000426e+00 9.486214336042110284e-01
5.000000000000000000e+00 9.439392964280549636e-01
5.020000000000000462e+00 9.392792970562684474e-01
5.040000000000000036e+00 9.346414056651092261e-01
5.060000000000000497e+00 9.300255834092343576e-01
5.080000000000000071e+00 9.254317977668862216e-01
5.100000000000000533e+00 9.208600069378675146e-01
5.120000000000000107e+00 9.163101758267886421e-01
5.139999999999999680e+00 9.117822597967646381e-01
5.160000000000000142e+00 9.072762213002462106e-01
5.179999999999999716e+00 9.027920129788959969e-01
5.200000000000000178e+00 8.983295949515891499e-01
5.219999999999999751e+00 8.938889172508730496e-01
5.240000000000000213e+00 8.894699377777492977e-01
5.259999999999999787e+00 8.850726040650728210e-01
5.280000000000000249e+00 8.806968719088088537e-01
5.299999999999999822e+00 8.763426864486909551e-01
5.320000000000000284e+00 8.720100014856404513e-01
5.339999999999999858e+00 8.676987598699593685e-01
5.360000000000000320e+00 8.634089135147142713e-01
5.379999999999999893e+00 8.591404030816425230e-01
5.400000000000000355e+00 8.548931787003385407e-01
5.419999999999999929e+00 8.506671789420316987e-01
5.440000000000000391e+00 8.464623522544674206e-01
5.459999999999999964e+00 8.422786352136613086e-01
5.480000000000000426e+00 8.381159746843924729e-01
5.500000000000000000e+00 8.339743053399976125e-01
5.520000000000000462e+00 8.298535725584820222e-01
5.540000000000000036e+00 8.257537092003257584e-01
5.560000000000000497e+00 8.216746592502865987e-01
5.580000000000000071e+00 8.176163538431397981e-01
5.600000000000000533e+00 8.135787356612735888e-01
5.620000000000000107e+00 8.095617341982782600e-01
5.639999999999999680e+00 8.055652909224776392e-01
5.660000000000000142e+00 8.015893337681735398e-01
5.679999999999999716e+00 7.976338030753788999e-01
5.700000000000000178e+00 7.936986252984491452e-01
5.719999999999999751e+00 7.897837397323198561e-01
5.740000000000000213e+00 7.858890714282291690e-01
5.759999999999999787e+00 7.820145587168005896e-01
5.780000000000000249e+00 7.781601253204906143e-01
5.799999999999999822e+00 7.743257086839531178e-01
5.820000000000000284e+00 7.705112312727722124e-01
5.839999999999999858e+00 7.667166297215866066e-01
5.860000000000000320e+00 7.629418253086113211e-01
5.879999999999999893e+00 7.591867539320927838e-01
5.900000000000000355e+00 7.554513357500381998e-01
5.919999999999999929e+00 7.517355059956205565e-01
5.940000000000000391e+00 7.480391837714935876e-01
5.959999999999999964e+00 7.443623037148378030e-01
5.980000000000000426e+00 7.407047839355402896e-01
6.000000000000000000e+00 7.370665585416643628e-01
6.020000000000000462e+00 7.334475447107093871e-01
6.040000000000000036e+00 7.298476760863338297e-01
6.060000000000000497e+00 7.262668689718617676e-01
6.080000000000000071e+00 7.227050566091592909e-01
6.100000000000000533e+00 7.191621544834433388e-01
6.120000000000000107e+00 7.156380954953411866e-01
6.140000000000000568e+00 7.121327943659747639e-01
6.160000000000000142e+00 7.086461837132504993e-01
6.179999999999999716e+00 7.051781775461688495e-01
6.200000000000000178e+00 7.017287082564822587e-01
6.219999999999999751e+00 6.982976891910456230e-01
6.240000000000000213e+00 6.948850525700920322e-01
6.259999999999999787e+00 6.914907111263879358e-01
6.280000000000000249e+00 6.881145969614038682e-01
6.299999999999999822e+00 6.847566222399560365e-01
6.320000000000000284e+00 6.814167189956849002e-01
6.339999999999999858e+00 6.780947988697612061e-01
6.360000000000000320e+00 6.747907938771329217e-01
6.379999999999999893e+00 6.715046151778223393e-01
6.400000000000000355e+00 6.682361948154884601e-01
6.419999999999999929e+00 6.649854435097342087e-01
6.440000000000000391e+00 6.617522933786398331e-01
6.459999999999999964e+00 6.585366547404116755e-01
6.480000000000000426e+00 6.553384598316059906e-01
6.500000000000000000e+00 6.521576186063772207e-01
6.520000000000000462e+00 6.489940634622130000e-01
6.540000000000000036e+00 6.458477040249287482e-01
6.560000000000000497e+00 6.427184728938304392e-01
6.580000000000000071e+00 6.396062794005293872e-01
6.600000000000000533e+00 6.365110563855265191e-01
6.620000000000000107e+00 6.334327129188067618e-01
6.640000000000000568e+00 6.303711821199601273e-01
6.660000000000000142e+00 6.273263728284362850e-01
6.679999999999999716e+00 6.242982184793700595e-01
6.700000000000000178e+00 6.212866277112951696e-01
6.719999999999999751e+00 6.182915343099628647e-01
6.740000000000000213e+00 6.153128467411911329e-01
6.759999999999999787e+00 6.123504991750639004e-01
6.780000000000000249e+00 6.094043999315038596e-01
6.799999999999999822e+00 6.064744835973308046e-01
6.820000000000000284e+00 6.035606583720465323e-01
6.839999999999999858e+00 6.006628592903401342e-01
6.860000000000000320e+00 5.977809944554672850e-01
6.879999999999999893e+00 5.949149993798833469e-01
6.900000000000000355e+00 5.920647820935057704e-01
6.919999999999999929e+00 5.892302786152591176e-01
6.940000000000000391e+00 5.864113969234049373e-01
6.959999999999999964e+00 5.836080735708712997e-01
6.980000000000000426e+00 5.808202165047541277e-01
7.000000000000000000e+00 5.780477628384137478e-01
7.020000000000000462e+00 5.752906205071041112e-01
7.040000000000000036e+00 5.725487272099564207e-01
7.060000000000000497e+00 5.698219908885913121e-01
7.080000000000000071e+00 5.671103498521915531e-01
7.100000000000000533e+00 5.644137120658699880e-01
7.120000000000000107e+00 5.617320164721296694e-01
7.140000000000000568e+00 5.590651710756394666e-01
7.160000000000000142e+00 5.564131154745141083e-01
7.179999999999999716e+00 5.537757577280223442e-01
7.200000000000000178e+00 5.511530381112240695e-01
7.219999999999999751e+00 5.485448647520495546e-01
7.240000000000000213e+00 5.459511786229221952e-01
7.259999999999999787e+00 5.433718879335329710e-01
7.280000000000000249e+00 5.408069343732013756e-01
7.299999999999999822e+00 5.382562262455463653e-01
7.320000000000000284e+00 5.357197059754637003e-01
7.339999999999999858e+00 5.331972819717826217e-01
7.360000000000000320e+00 5.306888974128243230e-01
7.379999999999999893e+00 5.281944608230350058e-01
7.400000000000000355e+00 5.257139161512131009e-01
7.419999999999999929e+00 5.232471720469922261e-01
7.440000000000000391e+00 5.207941732459432371e-01
7.459999999999999964e+00 5.183548285316369464e-01
7.480000000000000426e+00 5.159290834419646421e-01
7.500000000000000000e+00 5.135168469024096183e-01
7.520000000000000462e+00 5.111180652680155090e-01
7.540000000000000036e+00 5.087326476134029773e-01
7.560000000000000497e+00 5.063605411249145760e-01
7.580000000000000071e+00 5.040016550327813816e-01
7.600000000000000533e+00 5.016559373681317435e-01
7.620000000000000107e+00 4.993232975225964099e-01
7.640000000000000568e+00 4.970036843849445773e-01
7.660000000000000142e+00 4.946970075132873235e-01
7.679999999999999716e+00 4.924032166662776211e-01
7.700000000000000178e+00 4.901222215729499898e-01
7.719999999999999751e+00 4.878539728734858638e-01
7.740000000000000213e+00 4.855983804716463847e-01
7.759999999999999787e+00 4.833553959002317990e-01
7.780000000000000249e+00 4.811249292409164324e-01
7.799999999999999822e+00 4.789069329296636868e-01
7.820000000000000284e+00 4.767013172286569955e-01
7.839999999999999858e+00 4.745080354870435668e-01
7.860000000000000320e+00 4.723269981495501479e-01
7.879999999999999893e+00 4.701581594880294146e-01
