# Electrodo circular de radio 6 mm y espesor 710.0 um.
# Volumen de simulacion (convencion z,y,x):
# N: 1024 x 1024 x 1024 | voxelSize:  0.02mm x 0.02mm x 0.02mm | FOV:  20.48mm x 20.48mm x 20.48mm
# 
# z [mm]		 delta[ppm]
0.000000000000000000e+00 3.388069958057193798e+00
2.000000000000000042e-02 3.375492239772086123e+00
4.000000000000000083e-02 3.362612286113922266e+00
5.999999999999999778e-02 3.349438688540537612e+00
8.000000000000000167e-02 3.335980139244244302e+00
1.000000000000000056e-01 3.322245427931874051e+00
1.199999999999999956e-01 3.308243409413555991e+00
1.400000000000000133e-01 3.293983000367192826e+00
1.600000000000000033e-01 3.279473156153195124e+00
1.799999999999999933e-01 3.264722869765799729e+00
2.000000000000000111e-01 3.249741148449087458e+00
2.200000000000000011e-01 3.234537013441614928e+00
2.399999999999999911e-01 3.219119477246170646e+00
2.600000000000000089e-01 3.203497543993716778e+00
2.800000000000000266e-01 3.187680186991524778e+00
2.999999999999999889e-01 3.171676349985157906e+00
3.200000000000000067e-01 3.155494925090999381e+00
3.400000000000000244e-01 3.139144755080029103e+00
3.599999999999999867e-01 3.122634611612176592e+00
3.800000000000000044e-01 3.105973198654746525e+00
4.000000000000000222e-01 3.089169131104580135e+00
4.199999999999999845e-01 3.072230939400105054e+00
4.400000000000000022e-01 3.055167048508174332e+00
4.600000000000000200e-01 3.037985783779163285e+00
4.799999999999999822e-01 3.020695350353432840e+00
5.000000000000000000e-01 3.003303840281246639e+00
5.200000000000000178e-01 2.985819212331296324e+00
5.400000000000000355e-01 2.968249300387837408e+00
5.600000000000000533e-01 2.950601793686994156e+00
5.799999999999999600e-01 2.932884246485042645e+00
5.999999999999999778e-01 2.915104058696583067e+00
6.199999999999999956e-01 2.897268486819334576e+00
6.400000000000000133e-01 2.879384624975331874e+00
6.600000000000000311e-01 2.861459417064213806e+00
6.800000000000000488e-01 2.843499638170666088e+00
7.000000000000000666e-01 2.825511907911216980e+00
7.199999999999999734e-01 2.807502672190057336e+00
7.399999999999999911e-01 2.789478217694906448e+00
7.600000000000000089e-01 2.771444653955186244e+00
7.800000000000000266e-01 2.753407928937618099e+00
8.000000000000000444e-01 2.735373811375589881e+00
8.200000000000000622e-01 2.717347907408933505e+00
8.399999999999999689e-01 2.699335643132668494e+00
8.599999999999999867e-01 2.681342282222721529e+00
8.800000000000000044e-01 2.663372908664996430e+00
9.000000000000000222e-01 2.645432445305448965e+00
9.200000000000000400e-01 2.627525636705612566e+00
9.400000000000000577e-01 2.609657068554759096e+00
9.599999999999999645e-01 2.591831150609738899e+00
9.799999999999999822e-01 2.574052136905961685e+00
1.000000000000000000e+00 2.556324108729091549e+00
1.020000000000000018e+00 2.538650995562562240e+00
1.040000000000000036e+00 2.521036558049822851e+00
1.060000000000000053e+00 2.503484409616926865e+00
1.080000000000000071e+00 2.485997999377034695e+00
1.100000000000000089e+00 2.468580634368897631e+00
1.120000000000000107e+00 2.451235462366032625e+00
1.140000000000000124e+00 2.433965494673932639e+00
1.159999999999999920e+00 2.416773588801843786e+00
1.179999999999999938e+00 2.399662471764668403e+00
1.199999999999999956e+00 2.382634722585382558e+00
1.219999999999999973e+00 2.365692796050421709e+00
1.239999999999999991e+00 2.348839005007995695e+00
1.260000000000000009e+00 2.332075544529287559e+00
1.280000000000000027e+00 2.315404473977395128e+00
1.300000000000000044e+00 2.298827741529831048e+00
1.320000000000000062e+00 2.282347165991156057e+00
1.340000000000000080e+00 2.265964461635923577e+00
1.360000000000000098e+00 2.249681219746717087e+00
1.380000000000000115e+00 2.233498933739928471e+00
1.400000000000000133e+00 2.217418980409873175e+00
1.419999999999999929e+00 2.201442645303281598e+00
1.439999999999999947e+00 2.185571103657964365e+00
1.459999999999999964e+00 2.169805445994935411e+00
1.479999999999999982e+00 2.154146658739436226e+00
1.500000000000000000e+00 2.138595650002717452e+00
1.520000000000000018e+00 2.123153229880138326e+00
1.540000000000000036e+00 2.107820136397397626e+00
1.560000000000000053e+00 2.092597015479761513e+00
1.580000000000000071e+00 2.077484447040278681e+00
1.600000000000000089e+00 2.062482924620257840e+00
1.620000000000000107e+00 2.047592881599268111e+00
1.640000000000000124e+00 2.032814670506313259e+00
1.660000000000000142e+00 2.018148589333762732e+00
1.679999999999999938e+00 2.003594860523807863e+00
1.699999999999999956e+00 1.989153657370327899e+00
1.719999999999999973e+00 1.974825082684496413e+00
1.739999999999999991e+00 1.960609195270397009e+00
1.760000000000000009e+00 1.946505988278028454e+00
1.780000000000000027e+00 1.932515415739968212e+00
1.800000000000000044e+00 1.918637370619122207e+00
1.820000000000000062e+00 1.904871711395139666e+00
1.840000000000000080e+00 1.891218239817973990e+00
1.860000000000000098e+00 1.877676727533833301e+00
1.880000000000000115e+00 1.864246893554555085e+00
1.900000000000000133e+00 1.850928430913968636e+00
1.919999999999999929e+00 1.837720983866163449e+00
1.939999999999999947e+00 1.824624174563898027e+00
1.959999999999999964e+00 1.811637579997715353e+00
1.979999999999999982e+00 1.798760758688739969e+00
2.000000000000000000e+00 1.785993227383183335e+00
2.020000000000000018e+00 1.773334487752401545e+00
2.040000000000000036e+00 1.760784002856068176e+00
2.060000000000000053e+00 1.748341223842836634e+00
2.080000000000000071e+00 1.736005566197627470e+00
2.100000000000000089e+00 1.723776436436530224e+00
2.120000000000000107e+00 1.711653208152360772e+00
2.140000000000000124e+00 1.699635248697708656e+00
2.160000000000000142e+00 1.687721895044707043e+00
2.180000000000000160e+00 1.675912480450281627e+00
2.200000000000000178e+00 1.664206310144748180e+00
2.220000000000000195e+00 1.652602687973427686e+00
2.240000000000000213e+00 1.641100891930220129e+00
2.260000000000000231e+00 1.629700200769776064e+00
2.280000000000000249e+00 1.618399869400813929e+00
2.300000000000000266e+00 1.607199155463070239e+00
2.319999999999999840e+00 1.596097294596448890e+00
2.339999999999999858e+00 1.585093526976880218e+00
2.359999999999999876e+00 1.574187072476061822e+00
2.379999999999999893e+00 1.563377157150289687e+00
2.399999999999999911e+00 1.552662988306663605e+00
2.419999999999999929e+00 1.542043780938853859e+00
2.439999999999999947e+00 1.531518732714324704e+00
2.459999999999999964e+00 1.521087050350878656e+00
2.479999999999999982e+00 1.510747924540440046e+00
2.500000000000000000e+00 1.500500556260062623e+00
2.520000000000000018e+00 1.490344131646543335e+00
2.540000000000000036e+00 1.480277848235447280e+00
2.560000000000000053e+00 1.470300889801686495e+00
2.580000000000000071e+00 1.460412452519943116e+00
2.600000000000000089e+00 1.450611719785109166e+00
2.620000000000000107e+00 1.440897888287371309e+00
2.640000000000000124e+00 1.431270142827182790e+00
2.660000000000000142e+00 1.421727682298067563e+00
2.680000000000000160e+00 1.412269694509652451e+00
2.700000000000000178e+00 1.402895382071106978e+00
2.720000000000000195e+00 1.393603937236444157e+00
2.740000000000000213e+00 1.384394567681364485e+00
2.760000000000000231e+00 1.375266471383913780e+00
2.780000000000000249e+00 1.366218862287361002e+00
2.800000000000000266e+00 1.357250945229963479e+00
2.819999999999999840e+00 1.348361941486329041e+00
2.839999999999999858e+00 1.339551063758984251e+00
2.859999999999999876e+00 1.330817541590578967e+00
2.879999999999999893e+00 1.322160596430521196e+00
2.899999999999999911e+00 1.313579466910242077e+00
2.919999999999999929e+00 1.305073383997198855e+00
2.939999999999999947e+00 1.296641596125270413e+00
2.959999999999999964e+00 1.288283344448972523e+00
2.979999999999999982e+00 1.279997887821002100e+00
3.000000000000000000e+00 1.271784478158521026e+00
3.020000000000000018e+00 1.263642385259771572e+00
3.040000000000000036e+00 1.255570872294828444e+00
3.060000000000000053e+00 1.247569220453086603e+00
3.080000000000000071e+00 1.239636704570016512e+00
3.100000000000000089e+00 1.231772617597227892e+00
3.120000000000000107e+00 1.223976246377256771e+00
3.140000000000000124e+00 1.216246895927873828e+00
3.160000000000000142e+00 1.208583865376038569e+00
3.180000000000000160e+00 1.200986472048061859e+00
3.200000000000000178e+00 1.193454027574365695e+00
3.220000000000000195e+00 1.185985861777058448e+00
3.240000000000000213e+00 1.178581298956292267e+00
3.260000000000000231e+00 1.171239681566773383e+00
3.280000000000000249e+00 1.163960346697012538e+00
3.300000000000000266e+00 1.156742649526223854e+00
3.320000000000000284e+00 1.149585940006965679e+00
3.339999999999999858e+00 1.142489586093889731e+00
3.359999999999999876e+00 1.135452950640714720e+00
3.379999999999999893e+00 1.128475414392252851e+00
3.399999999999999911e+00 1.121556353105914949e+00
3.419999999999999929e+00 1.114695160298429633e+00
3.439999999999999947e+00 1.107891224602518765e+00
3.459999999999999964e+00 1.101143952259726166e+00
3.479999999999999982e+00 1.094452744722166138e+00
3.500000000000000000e+00 1.087817020882885455e+00
3.520000000000000018e+00 1.081236194933022032e+00
3.540000000000000036e+00 1.074709698321130613e+00
3.560000000000000053e+00 1.068236957875391191e+00
3.580000000000000071e+00 1.061817417483321924e+00
3.600000000000000089e+00 1.055450516489117918e+00
3.620000000000000107e+00 1.049135711085217082e+00
3.640000000000000124e+00 1.042872452994127341e+00
3.660000000000000142e+00 1.036660210563351336e+00
3.680000000000000160e+00 1.030498447741500678e+00
3.700000000000000178e+00 1.024386644868062080e+00
3.720000000000000195e+00 1.018324277952970425e+00
3.740000000000000213e+00 1.012310839152771758e+00
3.760000000000000231e+00 1.006345816363173995e+00
3.780000000000000249e+00 1.000428713373189060e+00
3.800000000000000266e+00 9.945590297795979806e-01
3.820000000000000284e+00 9.887362808106801015e-01
3.839999999999999858e+00 9.829599775719050081e-01
3.859999999999999876e+00 9.772296465309107116e-01
3.879999999999999893e+00 9.715448101031201045e-01
3.899999999999999911e+00 9.659050057896809705e-01
3.919999999999999929e+00 9.603097671120858214e-01
3.939999999999999947e+00 9.547586423948418721e-01
3.959999999999999964e+00 9.492511760575774726e-01
3.979999999999999982e+00 9.437869270342359451e-01
4.000000000000000000e+00 9.383654504315739331e-01
4.020000000000000462e+00 9.329863155767204042e-01
4.040000000000000036e+00 9.276490880503401870e-01
4.060000000000000497e+00 9.223533473544998085e-01
4.080000000000000071e+00 9.170986693291577341e-01
4.099999999999999645e+00 9.118846434323121253e-01
4.120000000000000107e+00 9.067108555479069798e-01
4.139999999999999680e+00 9.015769048702753086e-01
4.160000000000000142e+00 8.964823871119744769e-01
4.179999999999999716e+00 8.914269109846015837e-01
4.200000000000000178e+00 8.864100818144451388e-01
4.219999999999999751e+00 8.814315176118420192e-01
4.240000000000000213e+00 8.764908331029388489e-01
4.259999999999999787e+00 8.715876553797892168e-01
4.280000000000000249e+00 8.667216083559678985e-01
4.299999999999999822e+00 8.618923279896663070e-01
4.320000000000000284e+00 8.570994471712866103e-01
4.339999999999999858e+00 8.523426105118578899e-01
4.360000000000000320e+00 8.476214596701829862e-01
4.379999999999999893e+00 8.429356476989732228e-01
4.400000000000000355e+00 8.382848248194770813e-01
4.419999999999999929e+00 8.336686523177947450e-01
4.440000000000000391e+00 8.290867887743997855e-01
4.459999999999999964e+00 8.245389035031365221e-01
4.480000000000000426e+00 8.200246632434492478e-01
4.500000000000000000e+00 8.155437451346052580e-01
4.520000000000000462e+00 8.110958238778914753e-01
4.540000000000000036e+00 8.066805842387186898e-01
4.560000000000000497e+00 8.022977086864080398e-01
4.580000000000000071e+00 7.979468894168609827e-01
4.600000000000000533e+00 7.936278164770625976e-01
4.620000000000000107e+00 7.893401893010586479e-01
4.639999999999999680e+00 7.850837053266801480e-01
4.660000000000000142e+00 7.808580710376337164e-01
4.679999999999999716e+00 7.766629910794139446e-01
4.700000000000000178e+00 7.724981788003796312e-01
4.719999999999999751e+00 7.683633458742223921e-01
4.740000000000000213e+00 7.642582123329388910e-01
4.759999999999999787e+00 7.601824967027095425e-01
4.780000000000000249e+00 7.561359255217345865e-01
4.799999999999999822e+00 7.521182239967673100e-01
4.820000000000000284e+00 7.481291249988495373e-01
4.839999999999999858e+00 7.441683602472117798e-01
4.860000000000000320e+00 7.402356687759911180e-01
4.879999999999999893e+00 7.363307886526281321e-01
4.900000000000000355e+00 7.324534649086910099e-01
4.919999999999999929e+00 7.286034417993856316e-01
4.940000000000000391e+00 7.247804701916676917e-01
4.959999999999999964e+00 7.209843003718815480e-01
4.980000000000000426e+00 7.172146888843695667e-01
5.000000000000000000e+00 7.134713918937726218e-01
5.020000000000000462e+00 7.097541714674143742e-01
5.040000000000000036e+00 7.060627894991510223e-01
5.060000000000000497e+00 7.023970134288611833e-01
5.080000000000000071e+00 6.987566107342713106e-01
5.100000000000000533e+00 6.951413540808946134e-01
5.120000000000000107e+00 6.915510163886647854e-01
5.139999999999999680e+00 6.879853754057146942e-01
5.160000000000000142e+00 6.844442093561612372e-01
5.179999999999999716e+00 6.809273009311569425e-01
5.200000000000000178e+00 6.774344335245644499e-01
5.219999999999999751e+00 6.739653946347532454e-01
5.240000000000000213e+00 6.705199726944339744e-01
5.259999999999999787e+00 6.670979598766899610e-01
5.280000000000000249e+00 6.636991495256460150e-01
5.299999999999999822e+00 6.603233383602833406e-01
5.320000000000000284e+00 6.569703245121260027e-01
5.339999999999999858e+00 6.536399091204122547e-01
5.360000000000000320e+00 6.503318949834016038e-01
5.379999999999999893e+00 6.470460875384917987e-01
5.400000000000000355e+00 6.437822941333080085e-01
5.419999999999999929e+00 6.405403243843597050e-01
5.440000000000000391e+00 6.373199900744777047e-01
5.459999999999999964e+00 6.341211048836531416e-01
5.480000000000000426e+00 6.309434849189186068e-01
5.500000000000000000e+00 6.277869478110242873e-01
5.520000000000000462e+00 6.246513138832822110e-01
5.540000000000000036e+00 6.215364046077567206e-01
5.560000000000000497e+00 6.184420444191335298e-01
5.580000000000000071e+00 6.153680585241138035e-01
5.600000000000000533e+00 6.123142753667972782e-01
5.620000000000000107e+00 6.092805237849769906e-01
5.639999999999999680e+00 6.062666361330879550e-01
5.660000000000000142e+00 6.032724447791029121e-01
5.679999999999999716e+00 6.002977858915146125e-01
5.700000000000000178e+00 5.973424952705558288e-01
5.719999999999999751e+00 5.944064128052456430e-01
5.740000000000000213e+00 5.914893776326460850e-01
5.759999999999999787e+00 5.885912332714392514e-01
5.780000000000000249e+00 5.857118221029409266e-01
5.799999999999999822e+00 5.828509911872378213e-01
5.820000000000000284e+00 5.800085860596820853e-01
5.839999999999999858e+00 5.771844572360408376e-01
5.860000000000000320e+00 5.743784533181925944e-01
5.879999999999999893e+00 5.715904281943419152e-01
5.900000000000000355e+00 5.688202334476081257e-01
5.919999999999999929e+00 5.660677262577874513e-01
5.940000000000000391e+00 5.633327611065416241e-01
5.959999999999999964e+00 5.606151983867602162e-01
5.980000000000000426e+00 5.579148953980279657e-01
6.000000000000000000e+00 5.552317156701120915e-01
6.020000000000000462e+00 5.525655192423666318e-01
6.040000000000000036e+00 5.499161727074344252e-01
6.060000000000000497e+00 5.472835387682357666e-01
6.080000000000000071e+00 5.446674870084495801e-01
6.100000000000000533e+00 5.420678827207046080e-01
6.120000000000000107e+00 5.394845984099697622e-01
6.140000000000000568e+00 5.369175018865515181e-01
6.160000000000000142e+00 5.343664685090047106e-01
6.179999999999999716e+00 5.318313685355084974e-01
6.200000000000000178e+00 5.293120801124866492e-01
6.219999999999999751e+00 5.268084758778897037e-01
6.240000000000000213e+00 5.243204367022182844e-01
6.259999999999999787e+00 5.218478375372144207e-01
6.280000000000000249e+00 5.193905619155383402e-01
6.299999999999999822e+00 5.169484870383322939e-01
6.320000000000000284e+00 5.145214990403195188e-01
6.339999999999999858e+00 5.121094773096602770e-01
6.360000000000000320e+00 5.097123105248131392e-01
6.379999999999999893e+00 5.073298802000588692e-01
6.400000000000000355e+00 5.049620775009844298e-01
6.419999999999999929e+00 5.026087860089991644e-01
6.440000000000000391e+00 5.002698993218752666e-01
6.459999999999999964e+00 4.979453030305425743e-01
6.480000000000000426e+00 4.956348931116444922e-01
6.500000000000000000e+00 4.933385571098278244e-01
6.520000000000000462e+00 4.910561933288635217e-01
6.540000000000000036e+00 4.887876912125941886e-01
6.560000000000000497e+00 4.865329513417075979e-01
6.580000000000000071e+00 4.842918650064405028e-01
6.600000000000000533e+00 4.820643350156720852e-01
6.620000000000000107e+00 4.798502544544195891e-01
6.640000000000000568e+00 4.776495283124724822e-01
6.660000000000000142e+00 4.754620514196388203e-01
6.679999999999999716e+00 4.732877309007376687e-01
6.700000000000000178e+00 4.711264632814862185e-01
6.719999999999999751e+00 4.689781577772114129e-01
6.740000000000000213e+00 4.668427125622067186e-01
6.759999999999999787e+00 4.647200388991046816e-01
6.780000000000000249e+00 4.626100365644510992e-01
6.799999999999999822e+00 4.605126188262750886e-01
6.820000000000000284e+00 4.584276870185191033e-01
6.839999999999999858e+00 4.563551563739458583e-01
6.860000000000000320e+00 4.542949297399732633e-01
6.879999999999999893e+00 4.522469242746360862e-01
6.900000000000000355e+00 4.502110442963183079e-01
6.919999999999999929e+00 4.481872088500477025e-01
6.940000000000000391e+00 4.461753236835059866e-01
6.959999999999999964e+00 4.441753096915730947e-01
6.980000000000000426e+00 4.421870740109022369e-01
7.000000000000000000e+00 4.402105393502026565e-01
7.020000000000000462e+00 4.382456141955458628e-01
7.040000000000000036e+00 4.362922230345174235e-01
7.060000000000000497e+00 4.343502756643343732e-01
7.080000000000000071e+00 4.324196983175541686e-01
7.100000000000000533e+00 4.305004020649704777e-01
7.120000000000000107e+00 4.285923148512288949e-01
7.140000000000000568e+00 4.266953489843460234e-01
7.160000000000000142e+00 4.248094340891591103e-01
7.179999999999999716e+00 4.229344836751964820e-01
7.200000000000000178e+00 4.210704290165505070e-01
7.219999999999999751e+00 4.192171847897079306e-01
7.240000000000000213e+00 4.173746838880169618e-01
7.259999999999999787e+00 4.155428421209518830e-01
7.280000000000000249e+00 4.137215939720192970e-01
7.299999999999999822e+00 4.119108563508117604e-01
7.320000000000000284e+00 4.101105653027831144e-01
7.339999999999999858e+00 4.083206388053043923e-01
7.360000000000000320e+00 4.065410144384233870e-01
7.379999999999999893e+00 4.047716112159976953e-01
7.400000000000000355e+00 4.030123682261506635e-01
7.419999999999999929e+00 4.012632054884038291e-01
7.440000000000000391e+00 3.995240635732470458e-01
7.459999999999999964e+00 3.977948634760534175e-01
7.480000000000000426e+00 3.960755472247617925e-01
7.500000000000000000e+00 3.943660367611982465e-01
7.520000000000000462e+00 3.926662755465945565e-01
7.540000000000000036e+00 3.909761864408053955e-01
7.560000000000000497e+00 3.892957143149546884e-01
7.580000000000000071e+00 3.876247829188469995e-01
7.600000000000000533e+00 3.859633385108178216e-01
7.620000000000000107e+00 3.843113057034876490e-01
7.640000000000000568e+00 3.826686321204383345e-01
7.660000000000000142e+00 3.810352432102764864e-01
7.679999999999999716e+00 3.794110879405458436e-01
7.700000000000000178e+00 3.777960925699028194e-01
7.719999999999999751e+00 3.761902073892475773e-01
7.740000000000000213e+00 3.745933594416145929e-01
7.759999999999999787e+00 3.730055003213065823e-01
7.780000000000000249e+00 3.714265578309255966e-01
7.799999999999999822e+00 3.698564848488551382e-01
7.820000000000000284e+00 3.682952099126778345e-01
7.839999999999999858e+00 3.667426871661607635e-01
7.860000000000000320e+00 3.651988458581008068e-01
7.879999999999999893e+00 3.636636413795589773e-01
