# Electrodo circular de radio 6 mm y espesor 710.0 um.
# Volumen de simulacion (convencion z,y,x):
# N: 1024 x 1024 x 1024 | voxelSize:  0.02mm x 0.02mm x 0.02mm | FOV:  20.48mm x 20.48mm x 20.48mm
# 
# z [mm]		 delta[ppm]
0.000000000000000000e+00 5.738052460933186438e+00
2.000000000000000042e-02 5.613338338393561777e+00
4.000000000000000083e-02 5.488423453181034084e+00
5.999999999999999778e-02 5.363697596008581314e+00
8.000000000000000167e-02 5.239535280898368619e+00
1.000000000000000056e-01 5.116292113350739079e+00
1.199999999999999956e-01 4.994300056497372964e+00
1.400000000000000133e-01 4.873864450422423999e+00
1.600000000000000033e-01 4.755261340799314951e+00
1.799999999999999933e-01 4.638736006221621189e+00
2.000000000000000111e-01 4.524502032126011208e+00
2.200000000000000011e-01 4.412741353785455622e+00
2.399999999999999911e-01 4.303604793459404831e+00
2.600000000000000089e-01 4.197213316028408414e+00
2.800000000000000266e-01 4.093659607361973762e+00
2.999999999999999889e-01 3.993010113736591205e+00
3.200000000000000067e-01 3.895307207317184606e+00
3.400000000000000244e-01 3.800571588242366516e+00
3.599999999999999867e-01 3.708804644128497863e+00
3.800000000000000044e-01 3.619990878676090151e+00
4.000000000000000222e-01 3.534100179577093659e+00
4.199999999999999845e-01 3.451090049380819647e+00
4.400000000000000022e-01 3.370907609143081185e+00
4.600000000000000200e-01 3.293491511458959131e+00
4.799999999999999822e-01 3.218773601322465705e+00
5.000000000000000000e-01 3.146680471007622160e+00
5.200000000000000178e-01 3.077134765933789762e+00
5.400000000000000355e-01 3.010056393186649526e+00
5.600000000000000533e-01 2.945363500146857216e+00
5.799999999999999600e-01 2.882973376943775534e+00
5.999999999999999778e-01 2.822803154967453931e+00
6.199999999999999956e-01 2.764770455036240193e+00
6.400000000000000133e-01 2.708793858532917209e+00
6.600000000000000311e-01 2.654793353865719130e+00
6.800000000000000488e-01 2.602690630464905119e+00
7.000000000000000666e-01 2.552409371147734696e+00
7.199999999999999734e-01 2.503875412799592581e+00
7.399999999999999911e-01 2.457016924840445871e+00
7.600000000000000089e-01 2.411764472642816681e+00
7.800000000000000266e-01 2.368051114447573990e+00
8.000000000000000444e-01 2.325812396003707594e+00
8.200000000000000622e-01 2.284986391047179932e+00
8.399999999999999689e-01 2.245513648937508044e+00
8.599999999999999867e-01 2.207337197648575167e+00
8.800000000000000044e-01 2.170402460636875475e+00
9.000000000000000222e-01 2.134657236294516203e+00
9.200000000000000400e-01 2.100051595854350861e+00
9.400000000000000577e-01 2.066537849345527977e+00
9.599999999999999645e-01 2.034070432945076501e+00
9.799999999999999822e-01 2.002605868497057795e+00
1.000000000000000000e+00 1.972102646144176186e+00
1.020000000000000018e+00 1.942521182250757317e+00
1.040000000000000036e+00 1.913823701263156041e+00
1.060000000000000053e+00 1.885974195250143648e+00
1.080000000000000071e+00 1.858938307557567393e+00
1.100000000000000089e+00 1.832683296008865481e+00
1.120000000000000107e+00 1.807177919946836742e+00
1.140000000000000124e+00 1.782392408307085674e+00
1.159999999999999920e+00 1.758298350944260680e+00
1.179999999999999938e+00 1.734868672214146867e+00
1.199999999999999956e+00 1.712077527015558154e+00
1.219999999999999973e+00 1.689900280123027398e+00
1.239999999999999991e+00 1.668313407051097652e+00
1.260000000000000009e+00 1.647294479118454946e+00
1.280000000000000027e+00 1.626822069040801733e+00
1.300000000000000044e+00 1.606875741539830482e+00
1.320000000000000062e+00 1.587435963436663489e+00
1.340000000000000080e+00 1.568484099517980956e+00
1.360000000000000098e+00 1.550002326833696653e+00
1.380000000000000115e+00 1.531973635476792328e+00
1.400000000000000133e+00 1.514381746747297530e+00
1.419999999999999929e+00 1.497211118477947078e+00
1.439999999999999947e+00 1.480446866720053878e+00
1.459999999999999964e+00 1.464074775242986570e+00
1.479999999999999982e+00 1.448081220397857471e+00
1.500000000000000000e+00 1.432453184428163606e+00
1.520000000000000018e+00 1.417178183186798668e+00
1.540000000000000036e+00 1.402244282912407769e+00
1.560000000000000053e+00 1.387640030492163001e+00
1.580000000000000071e+00 1.373354473380346219e+00
1.600000000000000089e+00 1.359377092127528774e+00
1.620000000000000107e+00 1.345697823141807969e+00
1.640000000000000124e+00 1.332306993226446190e+00
1.660000000000000142e+00 1.319195344908821177e+00
1.679999999999999938e+00 1.306353972757412496e+00
1.699999999999999956e+00 1.293774351027464853e+00
1.719999999999999973e+00 1.281448271548818241e+00
1.739999999999999991e+00 1.269367873460242047e+00
1.760000000000000009e+00 1.257525582485789606e+00
1.780000000000000027e+00 1.245914142551096448e+00
1.800000000000000044e+00 1.234526556283641163e+00
1.820000000000000062e+00 1.223356118324119279e+00
1.840000000000000080e+00 1.212396356908473027e+00
1.860000000000000098e+00 1.201641068705396886e+00
1.880000000000000115e+00 1.191084261352337137e+00
1.900000000000000133e+00 1.180720189666594866e+00
1.919999999999999929e+00 1.170543299026252093e+00
1.939999999999999947e+00 1.160548262816975429e+00
1.959999999999999964e+00 1.150729926560037031e+00
1.979999999999999982e+00 1.141083346470138649e+00
2.000000000000000000e+00 1.131603734248149307e+00
2.020000000000000018e+00 1.122286496637063369e+00
2.040000000000000036e+00 1.113127180805497218e+00
2.060000000000000053e+00 1.104121514799438541e+00
2.080000000000000071e+00 1.095265353455249224e+00
2.100000000000000089e+00 1.086554719654212908e+00
2.120000000000000107e+00 1.077985750709980373e+00
2.140000000000000124e+00 1.069554740341269961e+00
2.160000000000000142e+00 1.061258085489118708e+00
2.180000000000000160e+00 1.053092328930509636e+00
2.200000000000000178e+00 1.045054106485142853e+00
2.220000000000000195e+00 1.037140190199372647e+00
2.240000000000000213e+00 1.029347435910848985e+00
2.260000000000000231e+00 1.021672826938009759e+00
2.280000000000000249e+00 1.014113421973826590e+00
2.300000000000000266e+00 1.006666399221354036e+00
2.319999999999999840e+00 9.993290045950170564e-01
2.339999999999999858e+00 9.920985962473395370e-01
2.359999999999999876e+00 9.849725930580210953e-01
2.379999999999999893e+00 9.779485195011026200e-01
2.399999999999999911e+00 9.710239544081344931e-01
2.419999999999999929e+00 9.641965761287654146e-01
2.439999999999999947e+00 9.574641115551895121e-01
2.459999999999999964e+00 9.508243815324471937e-01
2.479999999999999982e+00 9.442752501365315743e-01
2.500000000000000000e+00 9.378146702936511758e-01
2.520000000000000018e+00 9.314406333045773811e-01
2.540000000000000036e+00 9.251512146347837806e-01
2.560000000000000053e+00 9.189445236821049967e-01
2.580000000000000071e+00 9.128187497020546770e-01
2.600000000000000089e+00 9.067721118155115390e-01
2.620000000000000107e+00 9.008029050357054812e-01
2.640000000000000124e+00 8.949094505165935409e-01
2.660000000000000142e+00 8.890901416498980803e-01
2.680000000000000160e+00 8.833433945541153687e-01
2.700000000000000178e+00 8.776676942117591640e-01
2.720000000000000195e+00 8.720615452024275127e-01
2.740000000000000213e+00 8.665235178520194204e-01
2.760000000000000231e+00 8.610521992121979995e-01
2.780000000000000249e+00 8.556462391947984303e-01
2.800000000000000266e+00 8.503043018032049316e-01
2.819999999999999840e+00 8.450251112264858255e-01
2.839999999999999858e+00 8.398074033268598804e-01
2.859999999999999876e+00 8.346499716693118742e-01
2.879999999999999893e+00 8.295516192722223181e-01
2.899999999999999911e+00 8.245112045493453445e-01
2.919999999999999929e+00 8.195275933291279458e-01
2.939999999999999947e+00 8.145997046869197789e-01
2.959999999999999964e+00 8.097264632412261021e-01
2.979999999999999982e+00 8.049068448550154020e-01
3.000000000000000000e+00 8.001398292153736325e-01
3.020000000000000018e+00 7.954244453836523121e-01
3.040000000000000036e+00 7.907597246675702740e-01
3.060000000000000053e+00 7.861447460007391363e-01
3.080000000000000071e+00 7.815785891144033659e-01
3.100000000000000089e+00 7.770603797276330882e-01
3.120000000000000107e+00 7.725892430283165524e-01
3.140000000000000124e+00 7.681643486560544298e-01
3.160000000000000142e+00 7.637848645000053782e-01
3.180000000000000160e+00 7.594500014571815560e-01
3.200000000000000178e+00 7.551589675571040994e-01
3.220000000000000195e+00 7.509110124788352936e-01
3.240000000000000213e+00 7.467053820102964590e-01
3.260000000000000231e+00 7.425413623079685221e-01
3.280000000000000249e+00 7.384182347010197489e-01
3.300000000000000266e+00 7.343353196781623460e-01
3.320000000000000284e+00 7.302919320445516727e-01
3.339999999999999858e+00 7.262874246208340656e-01
3.359999999999999876e+00 7.223211437630185916e-01
3.379999999999999893e+00 7.183924727592505555e-01
3.399999999999999911e+00 7.145007877206062119e-01
3.419999999999999929e+00 7.106455006616227976e-01
3.439999999999999947e+00 7.068260157721625303e-01
3.459999999999999964e+00 7.030417721682089560e-01
3.479999999999999982e+00 6.992922005526204243e-01
3.500000000000000000e+00 6.955767656231489626e-01
3.520000000000000018e+00 6.918949231320953297e-01
3.540000000000000036e+00 6.882461619389409480e-01
3.560000000000000053e+00 6.846299614765450903e-01
3.580000000000000071e+00 6.810458334361764177e-01
3.600000000000000089e+00 6.774932796500803267e-01
3.620000000000000107e+00 6.739718333971242981e-01
3.640000000000000124e+00 6.704810177091029555e-01
3.660000000000000142e+00 6.670203862856121102e-01
3.680000000000000160e+00 6.635894822336473320e-01
3.700000000000000178e+00 6.601878785806666317e-01
3.720000000000000195e+00 6.568151374545986299e-01
3.740000000000000213e+00 6.534708501844296302e-01
3.760000000000000231e+00 6.501545969298733185e-01
3.780000000000000249e+00 6.468659863591953441e-01
3.800000000000000266e+00 6.436046157353082497e-01
3.820000000000000284e+00 6.403701101608558766e-01
3.839999999999999858e+00 6.371620831297017951e-01
3.859999999999999876e+00 6.339801753296532283e-01
3.879999999999999893e+00 6.308240156657263231e-01
3.899999999999999911e+00 6.276932596112240192e-01
3.919999999999999929e+00 6.245875507113886060e-01
3.939999999999999947e+00 6.215065584738673765e-01
3.959999999999999964e+00 6.184499403587621069e-01
3.979999999999999982e+00 6.154173791998022169e-01
4.000000000000000000e+00 6.124085456890743240e-01
4.020000000000000462e+00 6.094231353205457058e-01
4.040000000000000036e+00 6.064608313750690094e-01
4.060000000000000497e+00 6.035213413781977954e-01
4.080000000000000071e+00 6.006043605933777396e-01
4.099999999999999645e+00 5.977096079862842526e-01
4.120000000000000107e+00 5.948367902313964617e-01
4.139999999999999680e+00 5.919856371753465796e-01
4.160000000000000142e+00 5.891558663644488325e-01
4.179999999999999716e+00 5.863472179998444611e-01
4.200000000000000178e+00 5.835594199907515600e-01
4.219999999999999751e+00 5.807922223944771423e-01
4.240000000000000213e+00 5.780453630025613743e-01
4.259999999999999787e+00 5.753186012589693865e-01
4.280000000000000249e+00 5.726116843835241665e-01
4.299999999999999822e+00 5.699243807618366020e-01
4.320000000000000284e+00 5.672564466128368066e-01
4.339999999999999858e+00 5.646076588442816568e-01
4.360000000000000320e+00 5.619777822683570401e-01
4.379999999999999893e+00 5.593666019168334058e-01
4.400000000000000355e+00 5.567738908111738994e-01
4.419999999999999929e+00 5.541994417316628008e-01
4.440000000000000391e+00 5.516430355455931300e-01
4.459999999999999964e+00 5.491044724249039000e-01
4.480000000000000426e+00 5.465835407385613021e-01
4.500000000000000000e+00 5.440800477134588586e-01
4.520000000000000462e+00 5.415937888941755318e-01
4.540000000000000036e+00 5.391245782421478783e-01
4.560000000000000497e+00 5.366722181685417148e-01
4.580000000000000071e+00 5.342365290669183198e-01
4.600000000000000533e+00 5.318173199220150860e-01
4.620000000000000107e+00 5.294144172713218799e-01
4.639999999999999680e+00 5.270276363951978960e-01
4.660000000000000142e+00 5.246568097029983280e-01
4.679999999999999716e+00 5.223017585069349433e-01
4.700000000000000178e+00 5.199623208285854004e-01
4.719999999999999751e+00 5.176383237616005717e-01
4.740000000000000213e+00 5.153296106946367861e-01
4.759999999999999787e+00 5.130360142649589283e-01
4.780000000000000249e+00 5.107573829939996424e-01
4.799999999999999822e+00 5.084935548366676938e-01
4.820000000000000284e+00 5.062443832259598819e-01
4.839999999999999858e+00 5.040097112196485485e-01
4.860000000000000320e+00 5.017893969505333729e-01
4.879999999999999893e+00 4.995832883750253028e-01
4.900000000000000355e+00 4.973912481258064289e-01
4.919999999999999929e+00 4.952131288636635320e-01
4.940000000000000391e+00 4.930487975294843839e-01
4.959999999999999964e+00 4.908981113035779664e-01
4.980000000000000426e+00 4.887609412541040754e-01
5.000000000000000000e+00 4.866371489049239885e-01
5.020000000000000462e+00 4.845266092777202327e-01
5.040000000000000036e+00 4.824291880723326487e-01
5.060000000000000497e+00 4.803447641000030965e-01
5.080000000000000071e+00 4.782732070769261656e-01
5.100000000000000533e+00 4.762143994461640051e-01
5.120000000000000107e+00 4.741682147881455811e-01
5.139999999999999680e+00 4.721345390289738986e-01
5.160000000000000142e+00 4.701132494683036289e-01
5.179999999999999716e+00 4.681042353718802285e-01
5.200000000000000178e+00 4.661073776203010777e-01
5.219999999999999751e+00 4.641225686837809339e-01
5.240000000000000213e+00 4.621496928919526792e-01
5.259999999999999787e+00 4.601886457889586834e-01
5.280000000000000249e+00 4.582393150275889671e-01
5.299999999999999822e+00 4.563015991029558127e-01
5.320000000000000284e+00 4.543753888708508271e-01
5.339999999999999858e+00 4.524605856583654440e-01
5.360000000000000320e+00 4.505570834095614097e-01
5.379999999999999893e+00 4.486647861715204466e-01
5.400000000000000355e+00 4.467835908669938183e-01
5.419999999999999929e+00 4.449134041544432483e-01
5.440000000000000391e+00 4.430541258305996655e-01
5.459999999999999964e+00 4.412056650632036892e-01
5.480000000000000426e+00 4.393679244228931302e-01
5.500000000000000000e+00 4.375408154874289024e-01
5.520000000000000462e+00 4.357242435056745689e-01
5.540000000000000036e+00 4.339181223722201053e-01
5.560000000000000497e+00 4.321223599226580170e-01
5.580000000000000071e+00 4.303368722775747224e-01
5.600000000000000533e+00 4.285615697717627959e-01
5.620000000000000107e+00 4.267963706666533796e-01
5.639999999999999680e+00 4.250411877124803395e-01
5.660000000000000142e+00 4.232959412283048839e-01
5.679999999999999716e+00 4.215605462996280806e-01
5.700000000000000178e+00 4.198349252252563946e-01
5.719999999999999751e+00 4.181189953492032707e-01
5.740000000000000213e+00 4.164126808736803853e-01
5.759999999999999787e+00 4.147159013276978667e-01
5.780000000000000249e+00 4.130285827455703052e-01
5.799999999999999822e+00 4.113506467708797909e-01
5.820000000000000284e+00 4.096820211999356309e-01
5.839999999999999858e+00 4.080226297234034738e-01
5.860000000000000320e+00 4.063724018342430022e-01
5.879999999999999893e+00 4.047312632055254378e-01
5.900000000000000355e+00 4.030991449623905765e-01
5.919999999999999929e+00 4.014759746982992095e-01
5.940000000000000391e+00 3.998616851106365222e-01
5.959999999999999964e+00 3.982562056537857775e-01
5.980000000000000426e+00 3.966594705380184216e-01
6.000000000000000000e+00 3.950714110215947650e-01
6.020000000000000462e+00 3.934919627726553570e-01
6.040000000000000036e+00 3.919210587986011185e-01
6.060000000000000497e+00 3.903586361707283570e-01
6.080000000000000071e+00 3.888046295930526752e-01
6.100000000000000533e+00 3.872589774894724113e-01
6.120000000000000107e+00 3.857216162101938517e-01
6.140000000000000568e+00 3.841924854812264201e-01
6.160000000000000142e+00 3.826715232505509823e-01
6.179999999999999716e+00 3.811586704998010666e-01
6.200000000000000178e+00 3.796538667282386426e-01
6.219999999999999751e+00 3.781570541264638319e-01
6.240000000000000213e+00 3.766681737003541031e-01
6.259999999999999787e+00 3.751871688066981680e-01
6.280000000000000249e+00 3.737139819150740450e-01
6.299999999999999822e+00 3.722485575052985607e-01
6.320000000000000284e+00 3.707908394694101051e-01
6.339999999999999858e+00 3.693407733708509166e-01
6.360000000000000320e+00 3.678983044844738037e-01
6.379999999999999893e+00 3.664633794173732806e-01
6.400000000000000355e+00 3.650359447891065590e-01
6.419999999999999929e+00 3.636159482140994825e-01
6.440000000000000391e+00 3.622033376199585430e-01
6.459999999999999964e+00 3.607980615913754519e-01
6.480000000000000426e+00 3.594000693287565107e-01
6.500000000000000000e+00 3.580093103535558208e-01
6.520000000000000462e+00 3.566257351050663438e-01
6.540000000000000036e+00 3.552492940070844929e-01
6.560000000000000497e+00 3.538799387051603240e-01
6.580000000000000071e+00 3.525176204945089098e-01
6.600000000000000533e+00 3.511622921955365184e-01
6.620000000000000107e+00 3.498139059428801434e-01
6.640000000000000568e+00 3.484724157015763324e-01
6.660000000000000142e+00 3.471377744171137425e-01
6.679999999999999716e+00 3.458099371700610325e-01
6.700000000000000178e+00 3.444888576869742924e-01
6.719999999999999751e+00 3.431744921359355383e-01
6.740000000000000213e+00 3.418667949981668563e-01
6.759999999999999787e+00 3.405657235022780394e-01
6.780000000000000249e+00 3.392712328563888269e-01
6.799999999999999822e+00 3.379832813236532396e-01
6.820000000000000284e+00 3.367018248146612103e-01
6.839999999999999858e+00 3.354268226020811761e-01
6.860000000000000320e+00 3.341582312730510540e-01
6.879999999999999893e+00 3.328960110856278298e-01
6.900000000000000355e+00 3.316401192809001475e-01
6.919999999999999929e+00 3.303905170790742418e-01
6.940000000000000391e+00 3.291471623509544808e-01
6.959999999999999964e+00 3.279100172564947679e-01
6.980000000000000426e+00 3.266790402752831057e-01
7.000000000000000000e+00 3.254541944854362767e-01
7.020000000000000462e+00 3.242354389526387326e-01
7.040000000000000036e+00 3.230227376523586713e-01
7.060000000000000497e+00 3.218160502169776782e-01
7.080000000000000071e+00 3.206153414992502504e-01
7.100000000000000533e+00 3.194205716769874526e-01
7.120000000000000107e+00 3.182317064608889967e-01
7.140000000000000568e+00 3.170487065562002660e-01
7.160000000000000142e+00 3.158715385129158837e-01
7.179999999999999716e+00 3.147001635437441380e-01
7.200000000000000178e+00 3.135345490199862861e-01
7.219999999999999751e+00 3.123746566451151008e-01
7.240000000000000213e+00 3.112204545943955125e-01
7.259999999999999787e+00 3.100719050432811930e-01
7.280000000000000249e+00 3.089289769542674091e-01
7.299999999999999822e+00 3.077916329592803590e-01
7.320000000000000284e+00 3.066598427919089431e-01
7.339999999999999858e+00 3.055335695228589832e-01
7.360000000000000320e+00 3.044127836412490740e-01
7.379999999999999893e+00 3.032974486421515237e-01
7.400000000000000355e+00 3.021875357552019081e-01
7.419999999999999929e+00 3.010830088831342177e-01
7.440000000000000391e+00 2.999838399816175949e-01
7.459999999999999964e+00 2.988899933476490967e-01
7.480000000000000426e+00 2.978014416489604410e-01
7.500000000000000000e+00 2.967181495610183295e-01
7.520000000000000462e+00 2.956400904501346738e-01
7.540000000000000036e+00 2.945672293577843437e-01
7.560000000000000497e+00 2.934995403358613975e-01
7.580000000000000071e+00 2.924369887768776821e-01
7.600000000000000533e+00 2.913795494057639934e-01
7.620000000000000107e+00 2.903271879544667700e-01
7.640000000000000568e+00 2.892798798088577761e-01
7.660000000000000142e+00 2.882375910261150143e-01
7.679999999999999716e+00 2.872002976413781661e-01
7.700000000000000178e+00 2.861679660262372304e-01
7.719999999999999751e+00 2.851405728538459194e-01
7.740000000000000213e+00 2.841180847966993661e-01
7.759999999999999787e+00 2.831004791551117727e-01
7.780000000000000249e+00 2.820877228923915347e-01
7.799999999999999822e+00 2.810797939255431643e-01
7.820000000000000284e+00 2.800766594958186695e-01
7.839999999999999858e+00 2.790782981268183360e-01
7.860000000000000320e+00 2.780846773283165430e-01
7.879999999999999893e+00 2.770957762207808539e-01
