# Electrodo circular de radio 6 mm y espesor 710.0 um.
# Volumen de simulacion (convencion z,y,x):
# N: 1024 x 1024 x 1024 | voxelSize:  0.02mm x 0.02mm x 0.02mm | FOV:  20.48mm x 20.48mm x 20.48mm
# 
# z [mm]		 delta[ppm]
0.000000000000000000e+00 2.628469996570481193e+00
2.000000000000000042e-02 2.624465890938520118e+00
4.000000000000000083e-02 2.620345162906667635e+00
5.999999999999999778e-02 2.616108949410113294e+00
8.000000000000000167e-02 2.611758407605957899e+00
1.000000000000000056e-01 2.607294721686060690e+00
1.199999999999999956e-01 2.602719099411798798e+00
1.400000000000000133e-01 2.598032774488412855e+00
1.600000000000000033e-01 2.593237001456924151e+00
1.799999999999999933e-01 2.588333059864451169e+00
2.000000000000000111e-01 2.583322247821504547e+00
2.200000000000000011e-01 2.578205886902777966e+00
2.399999999999999911e-01 2.572985315516570726e+00
2.600000000000000089e-01 2.567661894083111740e+00
2.800000000000000266e-01 2.562236997991933052e+00
2.999999999999999889e-01 2.556712023081299190e+00
3.200000000000000067e-01 2.551088378376372923e+00
3.400000000000000244e-01 2.545367491835212714e+00
3.599999999999999867e-01 2.539550802758549164e+00
3.800000000000000044e-01 2.533639767815564880e+00
4.000000000000000222e-01 2.527635853221877227e+00
4.199999999999999845e-01 2.521540541032710081e+00
4.400000000000000022e-01 2.515355321030556812e+00
4.600000000000000200e-01 2.509081697291291935e+00
4.799999999999999822e-01 2.502721179841707055e+00
5.000000000000000000e-01 2.496275291492003667e+00
5.200000000000000178e-01 2.489745559228210947e+00
5.400000000000000355e-01 2.483133521313313885e+00
5.600000000000000533e-01 2.476440718456573098e+00
5.799999999999999600e-01 2.469668701178759918e+00
5.999999999999999778e-01 2.462819020736181752e+00
6.199999999999999956e-01 2.455893236750428699e+00
6.400000000000000133e-01 2.448892907918628126e+00
6.600000000000000311e-01 2.441819599903838789e+00
6.800000000000000488e-01 2.434674875817057327e+00
7.000000000000000666e-01 2.427460304367321076e+00
7.199999999999999734e-01 2.420177450140394981e+00
7.399999999999999911e-01 2.412827882004767499e+00
7.600000000000000089e-01 2.405413163177475333e+00
7.800000000000000266e-01 2.397934859884014003e+00
8.000000000000000444e-01 2.390394531231756936e+00
8.200000000000000622e-01 2.382793738119740379e+00
8.399999999999999689e-01 2.375134032913432058e+00
8.599999999999999867e-01 2.367416968601537608e+00
8.800000000000000044e-01 2.359644088289420516e+00
9.000000000000000222e-01 2.351816934598449205e+00
9.200000000000000400e-01 2.343937038974190923e+00
9.400000000000000577e-01 2.336005931324669049e+00
9.599999999999999645e-01 2.328025129158226569e+00
9.799999999999999822e-01 2.319996147455801960e+00
1.000000000000000000e+00 2.311920487636289767e+00
1.020000000000000018e+00 2.303799647658431926e+00
1.040000000000000036e+00 2.295635110826815151e+00
1.060000000000000053e+00 2.287428356118040185e+00
1.080000000000000071e+00 2.279180846826394991e+00
1.100000000000000089e+00 2.270894041109253525e+00
1.120000000000000107e+00 2.262569380484225068e+00
1.140000000000000124e+00 2.254208300587949854e+00
1.159999999999999920e+00 2.245812219524715658e+00
1.179999999999999938e+00 2.237382548833039664e+00
1.199999999999999956e+00 2.228920681696475281e+00
1.219999999999999973e+00 2.220428004111696385e+00
1.239999999999999991e+00 2.211905882962241776e+00
1.260000000000000009e+00 2.203355677381991562e+00
1.280000000000000027e+00 2.194778726701720917e+00
1.300000000000000044e+00 2.186176362001258422e+00
1.320000000000000062e+00 2.177549893930252445e+00
1.340000000000000080e+00 2.168900624442423819e+00
1.360000000000000098e+00 2.160229834499765023e+00
1.380000000000000115e+00 2.151538795981811525e+00
1.400000000000000133e+00 2.142828759275208661e+00
1.419999999999999929e+00 2.134100965351014789e+00
1.439999999999999947e+00 2.125356633248337346e+00
1.459999999999999964e+00 2.116596972312291047e+00
1.479999999999999982e+00 2.107823169574098987e+00
1.500000000000000000e+00 2.099036402142367308e+00
1.520000000000000018e+00 2.090237824487997109e+00
1.540000000000000036e+00 2.081428580981079968e+00
1.560000000000000053e+00 2.072609793083460605e+00
1.580000000000000071e+00 2.063782572023651785e+00
1.600000000000000089e+00 2.054948005905069763e+00
1.620000000000000107e+00 2.046107172511069550e+00
1.640000000000000124e+00 2.037261126332091887e+00
1.660000000000000142e+00 2.028410911492939839e+00
1.679999999999999938e+00 2.019557548706691907e+00
1.699999999999999956e+00 2.010702048316144186e+00
1.719999999999999973e+00 2.001845397178070751e+00
1.739999999999999991e+00 1.992988571810766718e+00
1.760000000000000009e+00 1.984132525216406817e+00
1.780000000000000027e+00 1.975278200126426631e+00
1.800000000000000044e+00 1.966426515765929528e+00
1.820000000000000062e+00 1.957578381188696426e+00
1.840000000000000080e+00 1.948734681991322715e+00
1.860000000000000098e+00 1.939896293729461929e+00
1.880000000000000115e+00 1.931064068585992111e+00
1.900000000000000133e+00 1.922238848860180926e+00
1.919999999999999929e+00 1.913421453597497823e+00
1.939999999999999947e+00 1.904612692143260899e+00
1.959999999999999964e+00 1.895813350738722924e+00
1.979999999999999982e+00 1.887024206130747173e+00
2.000000000000000000e+00 1.878246012141855603e+00
2.020000000000000018e+00 1.869479513327417575e+00
2.040000000000000036e+00 1.860725431524577811e+00
2.060000000000000053e+00 1.851984479548478113e+00
2.080000000000000071e+00 1.843257347727773166e+00
2.100000000000000089e+00 1.834544717631319211e+00
2.120000000000000107e+00 1.825847248595525718e+00
2.140000000000000124e+00 1.817165591472980735e+00
2.160000000000000142e+00 1.808500375159404427e+00
2.180000000000000160e+00 1.799852220355611099e+00
2.200000000000000178e+00 1.791221726099613942e+00
2.220000000000000195e+00 1.782609483533374117e+00
2.240000000000000213e+00 1.774016062447890008e+00
2.260000000000000231e+00 1.765442025046136010e+00
2.280000000000000249e+00 1.756887912506942984e+00
2.300000000000000266e+00 1.748354258735567601e+00
2.319999999999999840e+00 1.739841576954295421e+00
2.339999999999999858e+00 1.731350373432035017e+00
2.359999999999999876e+00 1.722881134107724144e+00
2.379999999999999893e+00 1.714434338290372617e+00
2.399999999999999911e+00 1.706010445323292490e+00
2.419999999999999929e+00 1.697609908246005439e+00
2.439999999999999947e+00 1.689233160505610343e+00
2.459999999999999964e+00 1.680880629571984697e+00
2.479999999999999982e+00 1.672552723704414435e+00
2.500000000000000000e+00 1.664249845511511561e+00
2.520000000000000018e+00 1.655972378779635656e+00
2.540000000000000036e+00 1.647720701968990342e+00
2.560000000000000053e+00 1.639495175112043901e+00
2.580000000000000071e+00 1.631296153237230095e+00
2.600000000000000089e+00 1.623123973344116511e+00
2.620000000000000107e+00 1.614978967746196092e+00
2.640000000000000124e+00 1.606861451131084140e+00
2.660000000000000142e+00 1.598771733813848739e+00
2.680000000000000160e+00 1.590710108889194618e+00
2.700000000000000178e+00 1.582676865386810627e+00
2.720000000000000195e+00 1.574672275523908205e+00
2.740000000000000213e+00 1.566696607754065829e+00
2.760000000000000231e+00 1.558750114127244846e+00
2.780000000000000249e+00 1.550833043223632801e+00
2.800000000000000266e+00 1.542945627629575212e+00
2.819999999999999840e+00 1.535088096747928343e+00
2.839999999999999858e+00 1.527260664397168233e+00
2.859999999999999876e+00 1.519463541489787017e+00
2.879999999999999893e+00 1.511696923763091727e+00
2.899999999999999911e+00 1.503961004317148742e+00
2.919999999999999929e+00 1.496255961484717956e+00
2.939999999999999947e+00 1.488581971220253042e+00
2.959999999999999964e+00 1.480939195117550344e+00
2.979999999999999982e+00 1.473327792641367706e+00
3.000000000000000000e+00 1.465747909300307628e+00
3.020000000000000018e+00 1.458199688712618736e+00
3.040000000000000036e+00 1.450683260942938091e+00
3.060000000000000053e+00 1.443198754393821837e+00
3.080000000000000071e+00 1.435746284314021404e+00
3.100000000000000089e+00 1.428325964507299428e+00
3.120000000000000107e+00 1.420937896020908031e+00
3.140000000000000124e+00 1.413582178663272071e+00
3.160000000000000142e+00 1.406258899880422630e+00
3.180000000000000160e+00 1.398968146074119678e+00
3.200000000000000178e+00 1.391709991674956015e+00
3.220000000000000195e+00 1.384484510252523393e+00
3.240000000000000213e+00 1.377291763792992452e+00
3.260000000000000231e+00 1.370131813592929015e+00
3.280000000000000249e+00 1.363004709750111232e+00
3.300000000000000266e+00 1.355910501832577664e+00
3.320000000000000284e+00 1.348849228590589089e+00
3.339999999999999858e+00 1.341820928392519319e+00
3.359999999999999876e+00 1.334825629166735750e+00
3.379999999999999893e+00 1.327863358595932519e+00
3.399999999999999911e+00 1.320934134296914086e+00
3.419999999999999929e+00 1.314037973764975886e+00
3.439999999999999947e+00 1.307174884800367698e+00
3.459999999999999964e+00 1.300344875194383132e+00
3.479999999999999982e+00 1.293547943410490841e+00
3.500000000000000000e+00 1.286784088003746884e+00
3.520000000000000018e+00 1.280053298565432707e+00
3.540000000000000036e+00 1.273355564867413747e+00
3.560000000000000053e+00 1.266690868078330867e+00
3.580000000000000071e+00 1.260059189624527676e+00
3.600000000000000089e+00 1.253460502686640332e+00
3.620000000000000107e+00 1.246894780768732502e+00
3.640000000000000124e+00 1.240361989483349747e+00
3.660000000000000142e+00 1.233862094820522337e+00
3.680000000000000160e+00 1.227395055230112497e+00
3.700000000000000178e+00 1.220960829582306006e+00
3.720000000000000195e+00 1.214559369555395341e+00
3.740000000000000213e+00 1.208190627279410290e+00
3.760000000000000231e+00 1.201854548038143289e+00
3.780000000000000249e+00 1.195551077587583055e+00
3.800000000000000266e+00 1.189280155180324483e+00
3.820000000000000284e+00 1.183041720550445763e+00
3.839999999999999858e+00 1.176835707269155096e+00
3.859999999999999876e+00 1.170662049387743542e+00
3.879999999999999893e+00 1.164520675132632022e+00
3.899999999999999911e+00 1.158411513198061238e+00
3.919999999999999929e+00 1.152334486789367674e+00
3.939999999999999947e+00 1.146289519557055936e+00
3.959999999999999964e+00 1.140276529996489208e+00
3.979999999999999982e+00 1.134295437014994912e+00
4.000000000000000000e+00 1.128346154696808101e+00
4.020000000000000462e+00 1.122428597494843361e+00
4.040000000000000036e+00 1.116542675369084803e+00
4.060000000000000497e+00 1.110688298594703749e+00
4.080000000000000071e+00 1.104865373282694962e+00
4.099999999999999645e+00 1.099073805795997005e+00
4.120000000000000107e+00 1.093313498660581029e+00
4.139999999999999680e+00 1.087584354581213164e+00
4.160000000000000142e+00 1.081886272751840794e+00
4.179999999999999716e+00 1.076219152462629003e+00
4.200000000000000178e+00 1.070582889817846661e+00
4.219999999999999751e+00 1.064977380925847372e+00
4.240000000000000213e+00 1.059402519033269874e+00
4.259999999999999787e+00 1.053858197289589738e+00
4.280000000000000249e+00 1.048344306305860396e+00
4.299999999999999822e+00 1.042860736485493822e+00
4.320000000000000284e+00 1.037407376016351801e+00
4.339999999999999858e+00 1.031984112759363637e+00
4.360000000000000320e+00 1.026590832682246601e+00
4.379999999999999893e+00 1.021227421297574045e+00
4.400000000000000355e+00 1.015893762546915768e+00
4.419999999999999929e+00 1.010589739780018759e+00
4.440000000000000391e+00 1.005315235097581805e+00
4.459999999999999964e+00 1.000070129863191548e+00
4.480000000000000426e+00 9.948543045135636032e-01
4.500000000000000000e+00 9.896676385947876797e-01
4.520000000000000462e+00 9.845100110483305800e-01
4.540000000000000036e+00 9.793812997632351802e-01
4.560000000000000497e+00 9.742813823466450751e-01
4.580000000000000071e+00 9.692101351835594736e-01
4.600000000000000533e+00 9.641674347001819578e-01
4.620000000000000107e+00 9.591531559228161363e-01
4.639999999999999680e+00 9.541671742428541325e-01
4.660000000000000142e+00 9.492093634663890667e-01
4.679999999999999716e+00 9.442795980891388608e-01
4.700000000000000178e+00 9.393777508283547295e-01
4.719999999999999751e+00 9.345036954165131249e-01
4.740000000000000213e+00 9.296573036070504559e-01
4.759999999999999787e+00 9.248384484951639450e-01
4.780000000000000249e+00 9.200470009889221146e-01
4.799999999999999822e+00 9.152828336660006059e-01
4.820000000000000284e+00 9.105458167017098647e-01
4.839999999999999858e+00 9.058358222700002571e-01
4.860000000000000320e+00 9.011527199199419469e-01
4.879999999999999893e+00 8.964963815298374605e-01
4.900000000000000355e+00 8.918666761236576646e-01
4.919999999999999929e+00 8.872634753866490698e-01
4.940000000000000391e+00 8.826866479132046139e-01
4.959999999999999964e+00 8.781360652928348332e-01
4.980000000000000426e+00 8.736115957809497123e-01
5.000000000000000000e+00 8.691131109635968910e-01
5.020000000000000462e+00 8.646404788426125254e-01
5.040000000000000036e+00 8.601935710880187491e-01
5.060000000000000497e+00 8.557722555289727362e-01
5.080000000000000071e+00 8.513764040022713253e-01
5.100000000000000533e+00 8.470058842405139288e-01
5.120000000000000107e+00 8.426605683256360724e-01
5.139999999999999680e+00 8.383403239656724848e-01
5.160000000000000142e+00 8.340450235618118713e-01
5.179999999999999716e+00 8.297745348651265340e-01
5.200000000000000178e+00 8.255287306661074354e-01
5.219999999999999751e+00 8.213074788227046064e-01
5.240000000000000213e+00 8.171106525808773391e-01
5.259999999999999787e+00 8.129381199652468970e-01
5.280000000000000249e+00 8.087897547396792897e-01
5.299999999999999822e+00 8.046654251518534640e-01
5.320000000000000284e+00 8.005650055424275990e-01
5.339999999999999858e+00 7.964883644347997560e-01
5.360000000000000320e+00 7.924353768019253286e-01
5.379999999999999893e+00 7.884059114924677480e-01
5.400000000000000355e+00 7.843998441639304930e-01
5.419999999999999929e+00 7.804170440363916716e-01
5.440000000000000391e+00 7.764573875010596371e-01
5.459999999999999964e+00 7.725207441927569585e-01
5.480000000000000426e+00 7.686069912825963524e-01
5.500000000000000000e+00 7.647159988603479119e-01
5.520000000000000462e+00 7.608476449204121250e-01
5.540000000000000036e+00 7.570018000451510520e-01
5.560000000000000497e+00 7.531783430929535061e-01
5.580000000000000071e+00 7.493771451735634637e-01
5.600000000000000533e+00 7.455980860474736849e-01
5.620000000000000107e+00 7.418410373843006278e-01
5.639999999999999680e+00 7.381058798823331157e-01
5.660000000000000142e+00 7.343924858009112100e-01
5.679999999999999716e+00 7.307007368094815547e-01
5.700000000000000178e+00 7.270305057848847063e-01
5.719999999999999751e+00 7.233816753988667747e-01
5.740000000000000213e+00 7.197541191711572806e-01
5.759999999999999787e+00 7.161477208048298015e-01
5.780000000000000249e+00 7.125623544860059111e-01
5.799999999999999822e+00 7.089979049761133689e-01
5.820000000000000284e+00 7.054542471489869682e-01
5.839999999999999858e+00 7.019312668495165664e-01
5.860000000000000320e+00 6.984288396588815839e-01
5.879999999999999893e+00 6.949468525287324505e-01
5.900000000000000355e+00 6.914851817652248878e-01
5.919999999999999929e+00 6.880437154483330930e-01
5.940000000000000391e+00 6.846223306253148566e-01
5.959999999999999964e+00 6.812209165244004216e-01
5.980000000000000426e+00 6.778393509482349977e-01
6.000000000000000000e+00 6.744775242916726254e-01
6.020000000000000462e+00 6.711353151256990168e-01
6.040000000000000036e+00 6.678126150286751717e-01
6.060000000000000497e+00 6.645093033512006198e-01
6.080000000000000071e+00 6.612252728706341509e-01
6.100000000000000533e+00 6.579604037272517303e-01
6.120000000000000107e+00 6.547145899115711654e-01
6.140000000000000568e+00 6.514877123620936850e-01
6.160000000000000142e+00 6.482796662953765887e-01
6.179999999999999716e+00 6.450903334556313817e-01
6.200000000000000178e+00 6.419196102971596041e-01
6.219999999999999751e+00 6.387673793759505170e-01
6.240000000000000213e+00 6.356335383946122297e-01
6.259999999999999787e+00 6.325179707260695228e-01
6.280000000000000249e+00 6.294205753307288154e-01
6.299999999999999822e+00 6.263412364022976631e-01
6.320000000000000284e+00 6.232798541674606785e-01
6.339999999999999858e+00 6.202363136437566427e-01
6.360000000000000320e+00 6.172105163316645715e-01
6.379999999999999893e+00 6.142023480744150943e-01
6.400000000000000355e+00 6.112117116528985594e-01
6.419999999999999929e+00 6.082384937371806410e-01
6.440000000000000391e+00 6.052825983943244115e-01
6.459999999999999964e+00 6.023439131213013109e-01
6.480000000000000426e+00 5.994223432762967319e-01
6.500000000000000000e+00 5.965177771826368769e-01
6.520000000000000462e+00 5.936301214938249915e-01
6.540000000000000036e+00 5.907592653579939457e-01
6.560000000000000497e+00 5.879051167274383927e-01
6.580000000000000071e+00 5.850675655730278590e-01
6.600000000000000533e+00 5.822465211486566039e-01
6.620000000000000107e+00 5.794418742449349846e-01
6.640000000000000568e+00 5.766535354195267971e-01
6.660000000000000142e+00 5.738813962793519741e-01
6.679999999999999716e+00 5.711253686874109281e-01
6.700000000000000178e+00 5.683853450626519255e-01
6.719999999999999751e+00 5.656612385744335114e-01
6.740000000000000213e+00 5.629529424490744560e-01
6.759999999999999787e+00 5.602603711627827110e-01
6.780000000000000249e+00 5.575834187438167833e-01
6.799999999999999822e+00 5.549220009752350302e-01
6.820000000000000284e+00 5.522760126814896253e-01
6.839999999999999858e+00 5.496453709520354725e-01
6.860000000000000320e+00 5.470299714010590231e-01
6.879999999999999893e+00 5.444297324235264357e-01
6.900000000000000355e+00 5.418445504166479187e-01
6.919999999999999929e+00 5.392743450796204652e-01
6.940000000000000391e+00 5.367190135853051602e-01
6.959999999999999964e+00 5.341784769354676055e-01
6.980000000000000426e+00 5.316526330710538151e-01
7.000000000000000000e+00 5.291414042944047047e-01
7.020000000000000462e+00 5.266446893063597701e-01
7.040000000000000036e+00 5.241624117075198708e-01
7.060000000000000497e+00 5.216944709502868704e-01
7.080000000000000071e+00 5.192407919309028896e-01
7.100000000000000533e+00 5.168012748444312798e-01
7.120000000000000107e+00 5.143758458798709521e-01
7.140000000000000568e+00 5.119644059659383961e-01
7.160000000000000142e+00 5.095668825812560421e-01
7.179999999999999716e+00 5.071831773786512620e-01
7.200000000000000178e+00 5.048132191229999233e-01
7.219999999999999751e+00 5.024569101816478423e-01
7.240000000000000213e+00 5.001141806021475178e-01
7.259999999999999787e+00 4.977849334562599593e-01
7.280000000000000249e+00 4.954691000704457005e-01
7.299999999999999822e+00 4.931665842107584852e-01
7.320000000000000284e+00 4.908773184786254795e-01
7.339999999999999858e+00 4.886012073238076847e-01
7.360000000000000320e+00 4.863381846185996227e-01
7.379999999999999893e+00 4.840881554858891267e-01
7.400000000000000355e+00 4.818510550645966339e-01
7.419999999999999929e+00 4.796267891397181238e-01
7.440000000000000391e+00 4.774152941124420457e-01
7.459999999999999964e+00 4.752164764188884782e-01
7.480000000000000426e+00 4.730302737180425710e-01
7.500000000000000000e+00 4.708565930857518955e-01
7.520000000000000462e+00 4.686953734342274025e-01
7.540000000000000036e+00 4.665465224677289857e-01
7.560000000000000497e+00 4.644099803470411736e-01
7.580000000000000071e+00 4.622856553931011803e-01
7.600000000000000533e+00 4.601734890105477760e-01
7.620000000000000107e+00 4.580733901253811191e-01
7.640000000000000568e+00 4.559853013813203737e-01
7.660000000000000142e+00 4.539091322974084242e-01
7.679999999999999716e+00 4.518448267516250172e-01
7.700000000000000178e+00 4.497922948441775981e-01
7.719999999999999751e+00 4.477514816824416100e-01
7.740000000000000213e+00 4.457222979355394132e-01
7.759999999999999787e+00 4.437046899353658813e-01
7.780000000000000249e+00 4.416985689078476440e-01
7.799999999999999822e+00 4.397038824045038097e-01
7.820000000000000284e+00 4.377205421956023024e-01
7.839999999999999858e+00 4.357484970473852748e-01
7.860000000000000320e+00 4.337876592621694449e-01
7.879999999999999893e+00 4.318379788160227051e-01
