# Electrodo circular de radio 6 mm y espesor 710.0 um.
# Volumen de simulacion (convencion z,y,x):
# N: 1024 x 1024 x 1024 | voxelSize:  0.02mm x 0.02mm x 0.02mm | FOV:  20.48mm x 20.48mm x 20.48mm
# 
# z [mm]		 delta[ppm]
0.000000000000000000e+00 3.004857335456276868e+00
2.000000000000000042e-02 2.997433030158878076e+00
4.000000000000000083e-02 2.989809672589065492e+00
5.999999999999999778e-02 2.981990842550485077e+00
8.000000000000000167e-02 2.973980135473866859e+00
1.000000000000000056e-01 2.965781195234154399e+00
1.199999999999999956e-01 2.957397712221899067e+00
1.400000000000000133e-01 2.948833429858613631e+00
1.600000000000000033e-01 2.940092132974475803e+00
1.799999999999999933e-01 2.931177651743381851e+00
2.000000000000000111e-01 2.922093850454970720e+00
2.200000000000000011e-01 2.912844631524081240e+00
2.399999999999999911e-01 2.903433923618758961e+00
2.600000000000000089e-01 2.893865686265960413e+00
2.800000000000000266e-01 2.884143897613164143e+00
2.999999999999999889e-01 2.874272559562740081e+00
3.200000000000000067e-01 2.864255685139467822e+00
3.400000000000000244e-01 2.854097304159252779e+00
3.599999999999999867e-01 2.843801450309410672e+00
3.800000000000000044e-01 2.833372167340190373e+00
4.000000000000000222e-01 2.822813495853348620e+00
4.199999999999999845e-01 2.812129480025581163e+00
4.400000000000000022e-01 2.801324154162083246e+00
4.600000000000000200e-01 2.790401549953389182e+00
4.799999999999999822e-01 2.779365682796223869e+00
5.000000000000000000e-01 2.768220559590888197e+00
5.200000000000000178e-01 2.756970164866306305e+00
5.400000000000000355e-01 2.745618469120060023e+00
5.600000000000000533e-01 2.734169414751598470e+00
5.799999999999999600e-01 2.722626924948361005e+00
5.999999999999999778e-01 2.710994889452892576e+00
6.199999999999999956e-01 2.699277173994636847e+00
6.400000000000000133e-01 2.687477605894357247e+00
6.600000000000000311e-01 2.675599984040911483e+00
6.800000000000000488e-01 2.663648064351115785e+00
7.000000000000000666e-01 2.651625570287691858e+00
7.199999999999999734e-01 2.639536178176436376e+00
7.399999999999999911e-01 2.627383528260704981e+00
7.600000000000000089e-01 2.615171209888251802e+00
7.800000000000000266e-01 2.602902773095034927e+00
8.000000000000000444e-01 2.590581713661796126e+00
8.200000000000000622e-01 2.578211485218925958e+00
8.399999999999999689e-01 2.565795484180758201e+00
8.599999999999999867e-01 2.553337062361136667e+00
8.800000000000000044e-01 2.540839511783795412e+00
9.000000000000000222e-01 2.528306077797345619e+00
9.200000000000000400e-01 2.515739943766280184e+00
9.400000000000000577e-01 2.503144244672416363e+00
9.599999999999999645e-01 2.490522051683541349e+00
9.799999999999999822e-01 2.477876386227547467e+00
1.000000000000000000e+00 2.465210204440794417e+00
1.020000000000000018e+00 2.452526411699900599e+00
1.040000000000000036e+00 2.439827846945896273e+00
1.060000000000000053e+00 2.427117297658119455e+00
1.080000000000000071e+00 2.414397484054480181e+00
1.100000000000000089e+00 2.401671074490994595e+00
1.120000000000000107e+00 2.388940669533774486e+00
1.140000000000000124e+00 2.376208817767376580e+00
1.159999999999999920e+00 2.363477999737860991e+00
1.179999999999999938e+00 2.350750644152584723e+00
1.199999999999999956e+00 2.338029111689905903e+00
1.219999999999999973e+00 2.325315711572925270e+00
1.239999999999999991e+00 2.312612685244753052e+00
1.260000000000000009e+00 2.299922223298427770e+00
1.280000000000000027e+00 2.287246449013691230e+00
1.300000000000000044e+00 2.274587435625365028e+00
1.320000000000000062e+00 2.261947189720638907e+00
1.340000000000000080e+00 2.249327668828132509e+00
1.360000000000000098e+00 2.236730764672336669e+00
1.380000000000000115e+00 2.224158321065822452e+00
1.400000000000000133e+00 2.211612117020277601e+00
1.419999999999999929e+00 2.199093884924429254e+00
1.439999999999999947e+00 2.186605293509281456e+00
1.459999999999999964e+00 2.174147966294650569e+00
1.479999999999999982e+00 2.161723464408783268e+00
1.500000000000000000e+00 2.149333305286675877e+00
1.520000000000000018e+00 2.136978945342777880e+00
1.540000000000000036e+00 2.124661798904651899e+00
1.560000000000000053e+00 2.112383220739888490e+00
1.580000000000000071e+00 2.100144525209002300e+00
1.600000000000000089e+00 2.087946968646491097e+00
1.620000000000000107e+00 2.075791768717333063e+00
1.640000000000000124e+00 2.063680086654319457e+00
1.660000000000000142e+00 2.051613046802914564e+00
1.679999999999999938e+00 2.039591718716024182e+00
1.699999999999999956e+00 2.027617136872459369e+00
1.719999999999999973e+00 2.015690282632353725e+00
1.739999999999999991e+00 2.003812104114832238e+00
1.760000000000000009e+00 1.991983498016509868e+00
1.780000000000000027e+00 1.980205329634471267e+00
1.800000000000000044e+00 1.968478414552099709e+00
1.820000000000000062e+00 1.956803538793861152e+00
1.840000000000000080e+00 1.945181440382084848e+00
1.860000000000000098e+00 1.933612829610463546e+00
1.880000000000000115e+00 1.922098370477070439e+00
1.900000000000000133e+00 1.910638701063901435e+00
1.919999999999999929e+00 1.899234414850795138e+00
1.939999999999999947e+00 1.887886081188766996e+00
1.959999999999999964e+00 1.876594226501029583e+00
1.979999999999999982e+00 1.865359354838179051e+00
2.000000000000000000e+00 1.854181928972006288e+00
2.020000000000000018e+00 1.843062391020967583e+00
2.040000000000000036e+00 1.832001143443826585e+00
2.060000000000000053e+00 1.820998569724158189e+00
2.080000000000000071e+00 1.810055015270356726e+00
2.100000000000000089e+00 1.799170808148243816e+00
2.120000000000000107e+00 1.788346239895224121e+00
2.140000000000000124e+00 1.777581586290320370e+00
2.160000000000000142e+00 1.766877088089767067e+00
2.180000000000000160e+00 1.756232971824082556e+00
2.200000000000000178e+00 1.745649430463496188e+00
2.220000000000000195e+00 1.735126644231886894e+00
2.240000000000000213e+00 1.724664761209977026e+00
2.260000000000000231e+00 1.714263918156203159e+00
2.280000000000000249e+00 1.703924221056568378e+00
2.300000000000000266e+00 1.693645765942703552e+00
2.319999999999999840e+00 1.683428619396837522e+00
2.339999999999999858e+00 1.673272839357474950e+00
2.359999999999999876e+00 1.663178455588820714e+00
2.379999999999999893e+00 1.653145490464655198e+00
2.399999999999999911e+00 1.643173939411085582e+00
2.419999999999999929e+00 1.633263791659362640e+00
2.439999999999999947e+00 1.623415010671617642e+00
2.459999999999999964e+00 1.613627554853466428e+00
2.479999999999999982e+00 1.603901357971946773e+00
2.500000000000000000e+00 1.594236349818881848e+00
2.520000000000000018e+00 1.584632436630920349e+00
2.540000000000000036e+00 1.575089521694731598e+00
2.560000000000000053e+00 1.565607485778606200e+00
2.580000000000000071e+00 1.556186207670630095e+00
2.600000000000000089e+00 1.546825544631928562e+00
2.620000000000000107e+00 1.537525352859058891e+00
2.640000000000000124e+00 1.528285467968523381e+00
2.660000000000000142e+00 1.519105725374676474e+00
2.680000000000000160e+00 1.509985940815712135e+00
2.700000000000000178e+00 1.500925930638421724e+00
2.720000000000000195e+00 1.491925492375413276e+00
2.740000000000000213e+00 1.482984424928116773e+00
2.760000000000000231e+00 1.474102509205510225e+00
2.780000000000000249e+00 1.465279528196786085e+00
2.800000000000000266e+00 1.456515247681413383e+00
2.819999999999999840e+00 1.447809436182942111e+00
2.839999999999999858e+00 1.439161845760681180e+00
2.859999999999999876e+00 1.430572231836128916e+00
2.879999999999999893e+00 1.422040334076119406e+00
2.899999999999999911e+00 1.413565896083405438e+00
2.919999999999999929e+00 1.405148646381549904e+00
2.939999999999999947e+00 1.396788317961165982e+00
2.959999999999999964e+00 1.388484629376416146e+00
2.979999999999999982e+00 1.380237304138476784e+00
3.000000000000000000e+00 1.372046051933851984e+00
3.020000000000000018e+00 1.363910587856635548e+00
3.040000000000000036e+00 1.355830613758445935e+00
3.060000000000000053e+00 1.347805837311056631e+00
3.080000000000000071e+00 1.339835953498134336e+00
3.100000000000000089e+00 1.331920663499792434e+00
3.120000000000000107e+00 1.324059656335902391e+00
3.140000000000000124e+00 1.316252627564168831e+00
3.160000000000000142e+00 1.308499261085080523e+00
3.180000000000000160e+00 1.300799247645107570e+00
3.200000000000000178e+00 1.293152266812970463e+00
3.220000000000000195e+00 1.285558005279578087e+00
3.240000000000000213e+00 1.278016139015581309e+00
3.260000000000000231e+00 1.270526351359658745e+00
3.280000000000000249e+00 1.263088315366964531e+00
3.300000000000000266e+00 1.255701711677376098e+00
3.320000000000000284e+00 1.248366211064696474e+00
3.339999999999999858e+00 1.241081492076496096e+00
3.359999999999999876e+00 1.233847223793572701e+00
3.379999999999999893e+00 1.226663083233013429e+00
3.399999999999999911e+00 1.219528738327666728e+00
3.419999999999999929e+00 1.212443865084061656e+00
3.439999999999999947e+00 1.205408130791293608e+00
3.459999999999999964e+00 1.198421210925451730e+00
3.479999999999999982e+00 1.191482772597540318e+00
3.500000000000000000e+00 1.184592491196082342e+00
3.520000000000000018e+00 1.177750034083352881e+00
3.540000000000000036e+00 1.170955076967845399e+00
3.560000000000000053e+00 1.164207287858315842e+00
3.580000000000000071e+00 1.157506343157779005e+00
3.600000000000000089e+00 1.150851911884557488e+00
3.620000000000000107e+00 1.144243671479501012e+00
3.640000000000000124e+00 1.137681292303407865e+00
3.660000000000000142e+00 1.131164453149193783e+00
3.680000000000000160e+00 1.124692826024735526e+00
3.700000000000000178e+00 1.118266091361703518e+00
3.720000000000000195e+00 1.111883923093100357e+00
3.740000000000000213e+00 1.105546003550502032e+00
3.760000000000000231e+00 1.099252008845212458e+00
3.780000000000000249e+00 1.093001623445684301e+00
3.800000000000000266e+00 1.086794525871425554e+00
3.820000000000000284e+00 1.080630402942366342e+00
3.839999999999999858e+00 1.074508935794350917e+00
3.859999999999999876e+00 1.068429813792254768e+00
3.879999999999999893e+00 1.062392720876052410e+00
3.899999999999999911e+00 1.056397349129512442e+00
3.919999999999999929e+00 1.050443385465553270e+00
3.939999999999999947e+00 1.044530524842359753e+00
3.959999999999999964e+00 1.038658457296910198e+00
3.979999999999999982e+00 1.032826880800360891e+00
4.000000000000000000e+00 1.027035488648372352e+00
4.020000000000000462e+00 1.021283981947642916e+00
4.040000000000000036e+00 1.015572057371772363e+00
4.060000000000000497e+00 1.009899419270879894e+00
4.080000000000000071e+00 1.004265767801496789e+00
4.099999999999999645e+00 9.986708106512016681e-01
4.120000000000000107e+00 9.931142515511884872e-01
4.139999999999999680e+00 9.875958016078546509e-01
4.160000000000000142e+00 9.821151682064793720e-01
4.179999999999999716e+00 9.766720659417348349e-01
4.200000000000000178e+00 9.712662059209786758e-01
4.219999999999999751e+00 9.658973062857307834e-01
4.240000000000000213e+00 9.605650819228678250e-01
4.259999999999999787e+00 9.552692545690916193e-01
4.280000000000000249e+00 9.500095429384599610e-01
4.299999999999999822e+00 9.447856724018950381e-01
4.320000000000000284e+00 9.395973655392634294e-01
4.339999999999999858e+00 9.344443513859991279e-01
4.360000000000000320e+00 9.293263564180670455e-01
4.379999999999999893e+00 9.242431133578205005e-01
4.400000000000000355e+00 9.191943525999266562e-01
4.419999999999999929e+00 9.141798105686116394e-01
4.440000000000000391e+00 9.091992215927837684e-01
4.459999999999999964e+00 9.042523258068159153e-01
4.480000000000000426e+00 8.993388614829087579e-01
4.500000000000000000e+00 8.944585724675693239e-01
4.520000000000000462e+00 8.896112009793613051e-01
4.540000000000000036e+00 8.847964945733143294e-01
4.560000000000000497e+00 8.800141994119791145e-01
4.580000000000000071e+00 8.752640667499943516e-01
4.600000000000000533e+00 8.705458466865279021e-01
4.620000000000000107e+00 8.658592941622456074e-01
4.639999999999999680e+00 8.612041632010055681e-01
4.660000000000000142e+00 8.565802124115122762e-01
4.679999999999999716e+00 8.519871997262354890e-01
4.700000000000000178e+00 8.474248874000649412e-01
4.719999999999999751e+00 8.428930372542445815e-01
4.740000000000000213e+00 8.383914151643404589e-01
4.759999999999999787e+00 8.339197868171194239e-01
4.780000000000000249e+00 8.294779216801616561e-01
4.799999999999999822e+00 8.250655892794140911e-01
4.820000000000000284e+00 8.206825626428260190e-01
4.839999999999999858e+00 8.163286151064114149e-01
4.860000000000000320e+00 8.120035232242901468e-01
4.879999999999999893e+00 8.077070641109369564e-01
4.900000000000000355e+00 8.034390178100258018e-01
4.919999999999999929e+00 7.991991651806616970e-01
4.940000000000000391e+00 7.949872897174404818e-01
4.959999999999999964e+00 7.908031759882880873e-01
4.980000000000000426e+00 7.866466108981540195e-01
5.000000000000000000e+00 7.825173826862182880e-01
5.020000000000000462e+00 7.784152816256695306e-01
5.040000000000000036e+00 7.743400995878324533e-01
5.060000000000000497e+00 7.702916301705039492e-01
5.080000000000000071e+00 7.662696688367078846e-01
5.100000000000000533e+00 7.622740124640422499e-01
5.120000000000000107e+00 7.583044600656179135e-01
5.139999999999999680e+00 7.543608117528876056e-01
5.160000000000000142e+00 7.504428700464387259e-01
5.179999999999999716e+00 7.465504382447916143e-01
5.200000000000000178e+00 7.426833223325624012e-01
5.219999999999999751e+00 7.388413287477125779e-01
5.240000000000000213e+00 7.350242668947413183e-01
5.259999999999999787e+00 7.312319463028741362e-01
5.280000000000000249e+00 7.274641797517730213e-01
5.299999999999999822e+00 7.237207798131737313e-01
5.320000000000000284e+00 7.200015625967397526e-01
5.339999999999999858e+00 7.163063436676545548e-01
5.360000000000000320e+00 7.126349424200874028e-01
5.379999999999999893e+00 7.089871773632373531e-01
5.400000000000000355e+00 7.053628711300585774e-01
5.419999999999999929e+00 7.017618451242321198e-01
5.440000000000000391e+00 6.981839251716313033e-01
5.459999999999999964e+00 6.946289355207118099e-01
5.480000000000000426e+00 6.910967051443502873e-01
5.500000000000000000e+00 6.875870610861366528e-01
5.520000000000000462e+00 6.840998354200573672e-01
5.540000000000000036e+00 6.806348579351716443e-01
5.560000000000000497e+00 6.771919637607883846e-01
5.580000000000000071e+00 6.737709853819773276e-01
5.600000000000000533e+00 6.703717609377403130e-01
5.620000000000000107e+00 6.669941255598073049e-01
5.639999999999999680e+00 6.636379203514691794e-01
5.660000000000000142e+00 6.603029830420917845e-01
5.679999999999999716e+00 6.569891576541253553e-01
5.700000000000000178e+00 6.536962844657537852e-01
5.719999999999999751e+00 6.504242103737863934e-01
5.740000000000000213e+00 6.471727781568329396e-01
5.759999999999999787e+00 6.439418375416277041e-01
5.780000000000000249e+00 6.407312337591043461e-01
5.799999999999999822e+00 6.375408193218988773e-01
5.820000000000000284e+00 6.343704418656768151e-01
5.839999999999999858e+00 6.312199566453920996e-01
5.860000000000000320e+00 6.280892136541978976e-01
5.879999999999999893e+00 6.249780708462699952e-01
5.900000000000000355e+00 6.218863805255764321e-01
5.919999999999999929e+00 6.188140033029125853e-01
5.940000000000000391e+00 6.157607937467989290e-01
5.959999999999999964e+00 6.127266150825855240e-01
5.980000000000000426e+00 6.097113240976929083e-01
6.000000000000000000e+00 6.067147865905089255e-01
6.020000000000000462e+00 6.037368615221593293e-01
6.040000000000000036e+00 6.007774172231233889e-01
6.060000000000000497e+00 5.978363147836811553e-01
6.080000000000000071e+00 5.949134250260460499e-01
6.100000000000000533e+00 5.920086111255897787e-01
6.120000000000000107e+00 5.891217463565020518e-01
6.140000000000000568e+00 5.862526959358548284e-01
6.160000000000000142e+00 5.834013355506698639e-01
6.179999999999999716e+00 5.805675324168348972e-01
6.200000000000000178e+00 5.777511645956890929e-01
6.219999999999999751e+00 5.749521012597343939e-01
6.240000000000000213e+00 5.721702228067395701e-01
6.259999999999999787e+00 5.694054003241537654e-01
6.280000000000000249e+00 5.666575165089245969e-01
6.299999999999999822e+00 5.639264443224707435e-01
6.320000000000000284e+00 5.612120687243170591e-01
6.339999999999999858e+00 5.585142645094052227e-01
6.360000000000000320e+00 5.558329188638795326e-01
6.379999999999999893e+00 5.531679083764616811e-01
6.400000000000000355e+00 5.505191224246095416e-01
6.419999999999999929e+00 5.478864393516131859e-01
6.440000000000000391e+00 5.452697506915835657e-01
6.459999999999999964e+00 5.426689365038716018e-01
6.480000000000000426e+00 5.400838904452427425e-01
6.500000000000000000e+00 5.375144942531215886e-01
6.520000000000000462e+00 5.349606436735692139e-01
6.540000000000000036e+00 5.324222220848027209e-01
6.560000000000000497e+00 5.298991272894738591e-01
6.580000000000000071e+00 5.273912442698250880e-01
6.600000000000000533e+00 5.248984728530414756e-01
6.620000000000000107e+00 5.224206995893190264e-01
6.640000000000000568e+00 5.199578262989587030e-01
6.660000000000000142e+00 5.175097410645399520e-01
6.679999999999999716e+00 5.150763476686992526e-01
6.700000000000000178e+00 5.126575356915230586e-01
6.719999999999999751e+00 5.102532108478372574e-01
6.740000000000000213e+00 5.078632641808461523e-01
6.759999999999999787e+00 5.054876033080477615e-01
6.780000000000000249e+00 5.031261207020459869e-01
6.799999999999999822e+00 5.007787258541225306e-01
6.820000000000000284e+00 4.984453126330353201e-01
6.839999999999999858e+00 4.961257923755797439e-01
6.860000000000000320e+00 4.938200603140820988e-01
6.879999999999999893e+00 4.915280296031857010e-01
6.900000000000000355e+00 4.892495968066684076e-01
6.919999999999999929e+00 4.869846768699630513e-01
6.940000000000000391e+00 4.847331676568154557e-01
6.959999999999999964e+00 4.824949858769863043e-01
6.980000000000000426e+00 4.802700306631500493e-01
7.000000000000000000e+00 4.780582204635322463e-01
7.020000000000000462e+00 4.758594556493181971e-01
7.040000000000000036e+00 4.736736563819121670e-01
7.060000000000000497e+00 4.715007242410215182e-01
7.080000000000000071e+00 4.693405810765183817e-01
7.100000000000000533e+00 4.671931296472464634e-01
7.120000000000000107e+00 4.650582934674106772e-01
7.140000000000000568e+00 4.629359764460075355e-01
7.160000000000000142e+00 4.608261037379961511e-01
7.179999999999999716e+00 4.587285803741358858e-01
7.200000000000000178e+00 4.566433331271131379e-01
7.219999999999999751e+00 4.545702681214385255e-01
7.240000000000000213e+00 4.525093137250525976e-01
7.259999999999999787e+00 4.504603771287783442e-01
7.280000000000000249e+00 4.484233882738660748e-01
7.299999999999999822e+00 4.463982553903707573e-01
7.320000000000000284e+00 4.443849099714429207e-01
7.339999999999999858e+00 4.423832612598511682e-01
7.360000000000000320e+00 4.403932422797582902e-01
7.379999999999999893e+00 4.384147632604574185e-01
7.400000000000000355e+00 4.364477587367502909e-01
7.419999999999999929e+00 4.344921398988066952e-01
7.440000000000000391e+00 4.325478427722012076e-01
7.459999999999999964e+00 4.306147794826453712e-01
7.480000000000000426e+00 4.286928875271198147e-01
7.500000000000000000e+00 4.267820799420681821e-01
7.520000000000000462e+00 4.248822956769954806e-01
7.540000000000000036e+00 4.229934486545653960e-01
7.560000000000000497e+00 4.211154792584176909e-01
7.580000000000000071e+00 4.192483022734123099e-01
7.600000000000000533e+00 4.173918594994026066e-01
7.620000000000000107e+00 4.155460665597103809e-01
7.640000000000000568e+00 4.137108666529586976e-01
7.660000000000000142e+00 4.118861762176714847e-01
7.679999999999999716e+00 4.100719398342514421e-01
7.700000000000000178e+00 4.082680747334191951e-01
7.719999999999999751e+00 4.064745268608275230e-01
7.740000000000000213e+00 4.046912142168561655e-01
7.759999999999999787e+00 4.029180840963239030e-01
7.780000000000000249e+00 4.011550552469641540e-01
7.799999999999999822e+00 3.994020762971143279e-01
7.820000000000000284e+00 3.976590667200115004e-01
7.839999999999999858e+00 3.959259764622986011e-01
7.860000000000000320e+00 3.942027257010703445e-01
7.879999999999999893e+00 3.924892656864946705e-01
