# Electrodo circular de radio 6 mm y espesor 710.0 um.
# Volumen de simulacion (convencion z,y,x):
# N: 1024 x 1024 x 1024 | voxelSize:  0.02mm x 0.02mm x 0.02mm | FOV:  20.48mm x 20.48mm x 20.48mm
# 
# z [mm]		 delta[ppm]
0.000000000000000000e+00 3.214832578646468875e+00
2.000000000000000042e-02 3.204818768040492927e+00
4.000000000000000083e-02 3.194551404202496059e+00
5.999999999999999778e-02 3.184036294109095611e+00
8.000000000000000167e-02 3.173279398323075817e+00
1.000000000000000056e-01 3.162286757435803342e+00
1.199999999999999956e-01 3.151064481641715709e+00
1.400000000000000133e-01 3.139618741151565917e+00
1.600000000000000033e-01 3.127955755140490179e+00
1.799999999999999933e-01 3.116081789691066195e+00
2.000000000000000111e-01 3.104003143478731186e+00
2.200000000000000011e-01 3.091726148129231078e+00
2.399999999999999911e-01 3.079257152856443636e+00
2.600000000000000089e-01 3.066602526080044022e+00
2.800000000000000266e-01 3.053768639414620178e+00
2.999999999999999889e-01 3.040761870341248674e+00
3.200000000000000067e-01 3.027588585796564757e+00
3.400000000000000244e-01 3.014255145803529157e+00
3.599999999999999867e-01 3.000767886789153849e+00
3.800000000000000044e-01 2.987133126141745088e+00
4.000000000000000222e-01 2.973357145350919328e+00
4.199999999999999845e-01 2.959446195475663455e+00
4.400000000000000022e-01 2.945406480174785457e+00
4.600000000000000200e-01 2.931244162080669291e+00
4.799999999999999822e-01 2.916965345767692508e+00
5.000000000000000000e-01 2.902576085028545805e+00
5.200000000000000178e-01 2.888082365820388020e+00
5.400000000000000355e-01 2.873490114440138576e+00
5.600000000000000533e-01 2.858805180473202423e+00
5.799999999999999600e-01 2.844033345861860074e+00
5.999999999999999778e-01 2.829180307878107925e+00
6.199999999999999956e-01 2.814251689075868867e+00
6.400000000000000133e-01 2.799253020297941763e+00
6.600000000000000311e-01 2.784189751499279275e+00
6.800000000000000488e-01 2.769067234796272814e+00
7.000000000000000666e-01 2.753890736144462448e+00
7.199999999999999734e-01 2.738665418429265586e+00
7.399999999999999911e-01 2.723396353978128737e+00
7.600000000000000089e-01 2.708088507690797453e+00
7.800000000000000266e-01 2.692746750362472241e+00
8.000000000000000444e-01 2.677375841844711335e+00
8.200000000000000622e-01 2.661980445153305119e+00
8.399999999999999689e-01 2.646565109650633296e+00
8.599999999999999867e-01 2.631134285909336068e+00
8.800000000000000044e-01 2.615692308901660379e+00
9.000000000000000222e-01 2.600243413588021024e+00
9.200000000000000400e-01 2.584791718099262781e+00
9.400000000000000577e-01 2.569341240017448236e+00
9.599999999999999645e-01 2.553895879533237601e+00
9.799999999999999822e-01 2.538459436385107626e+00
1.000000000000000000e+00 2.523035592975087837e+00
1.020000000000000018e+00 2.507627931931712073e+00
1.040000000000000036e+00 2.492239919164926487e+00
1.060000000000000053e+00 2.476874922017766600e+00
1.080000000000000071e+00 2.461536192242808063e+00
1.100000000000000089e+00 2.446226884707443539e+00
1.120000000000000107e+00 2.430950040272892743e+00
1.140000000000000124e+00 2.415708605018281219e+00
1.159999999999999920e+00 2.400505413005249000e+00
1.179999999999999938e+00 2.385343205986513393e+00
1.199999999999999956e+00 2.370224616038600463e+00
1.219999999999999973e+00 2.355152185721427482e+00
1.239999999999999991e+00 2.340128350563944526e+00
1.260000000000000009e+00 2.325155459642261668e+00
1.280000000000000027e+00 2.310235757903082998e+00
1.300000000000000044e+00 2.295371407129059182e+00
1.320000000000000062e+00 2.280564468087384000e+00
1.340000000000000080e+00 2.265816921852307875e+00
1.360000000000000098e+00 2.251130651766741764e+00
1.380000000000000115e+00 2.236507465093287905e+00
1.400000000000000133e+00 2.221949074779201894e+00
1.419999999999999929e+00 2.207457121408682887e+00
1.439999999999999947e+00 2.193033154762287662e+00
1.459999999999999964e+00 2.178678656044723105e+00
1.479999999999999982e+00 2.164395019232237871e+00
1.500000000000000000e+00 2.150183573551608607e+00
1.520000000000000018e+00 2.136045564609882152e+00
1.540000000000000036e+00 2.121982177101698674e+00
1.560000000000000053e+00 2.107994515718081274e+00
1.580000000000000071e+00 2.094083628060639413e+00
1.600000000000000089e+00 2.080250485326947452e+00
1.620000000000000107e+00 2.066496005411557313e+00
1.640000000000000124e+00 2.052821033367607573e+00
1.660000000000000142e+00 2.039226364675885250e+00
1.679999999999999938e+00 2.025712725483095333e+00
1.699999999999999956e+00 2.012280796021437723e+00
1.719999999999999973e+00 1.998931190625886645e+00
1.739999999999999991e+00 1.985664481287879424e+00
1.760000000000000009e+00 1.972481177454632917e+00
1.780000000000000027e+00 1.959381749701638364e+00
1.800000000000000044e+00 1.946366609318702423e+00
1.820000000000000062e+00 1.933436132086902903e+00
1.840000000000000080e+00 1.920590637656623967e+00
1.860000000000000098e+00 1.907830413415544157e+00
1.880000000000000115e+00 1.895155693665323771e+00
1.900000000000000133e+00 1.882566683568033028e+00
1.919999999999999929e+00 1.870063538128583502e+00
1.939999999999999947e+00 1.857646386207738587e+00
1.959999999999999964e+00 1.845315309318588559e+00
1.979999999999999982e+00 1.833070365694918769e+00
2.000000000000000000e+00 1.820911568910336342e+00
2.020000000000000018e+00 1.808838911991381249e+00
2.040000000000000036e+00 1.796852345868887646e+00
2.060000000000000053e+00 1.784951803525717695e+00
2.080000000000000071e+00 1.773137178290135507e+00
2.100000000000000089e+00 1.761408348008491886e+00
2.120000000000000107e+00 1.749765153191209510e+00
2.140000000000000124e+00 1.738207421201124259e+00
2.160000000000000142e+00 1.726734944262728888e+00
2.180000000000000160e+00 1.715347503657220996e+00
2.200000000000000178e+00 1.704044847606332791e+00
2.220000000000000195e+00 1.692826715465381548e+00
2.240000000000000213e+00 1.681692815492993098e+00
2.260000000000000231e+00 1.670642849033697530e+00
2.280000000000000249e+00 1.659676488185366061e+00
2.300000000000000266e+00 1.648793399963085493e+00
2.319999999999999840e+00 1.637993223876026638e+00
2.339999999999999858e+00 1.627275596064477803e+00
2.359999999999999876e+00 1.616640126798307708e+00
2.379999999999999893e+00 1.606086424579126648e+00
2.399999999999999911e+00 1.595614073572333425e+00
2.419999999999999929e+00 1.585222657666494950e+00
2.439999999999999947e+00 1.574911737851294680e+00
2.459999999999999964e+00 1.564680876226250961e+00
2.479999999999999982e+00 1.554529613336697258e+00
2.500000000000000000e+00 1.544457492124009290e+00
2.520000000000000018e+00 1.534464035231992263e+00
2.540000000000000036e+00 1.524548768890806372e+00
2.560000000000000053e+00 1.514711200205902886e+00
2.580000000000000071e+00 1.504950840967843817e+00
2.600000000000000089e+00 1.495267184936115212e+00
2.620000000000000107e+00 1.485659731567047226e+00
2.640000000000000124e+00 1.476127963304567858e+00
2.660000000000000142e+00 1.466671369218389920e+00
2.680000000000000160e+00 1.457289422313955862e+00
2.700000000000000178e+00 1.447981603073014156e+00
2.720000000000000195e+00 1.438747376794714761e+00
2.740000000000000213e+00 1.429586217030690554e+00
2.760000000000000231e+00 1.420497582969374673e+00
2.780000000000000249e+00 1.411480942757657786e+00
2.800000000000000266e+00 1.402535750940219206e+00
2.819999999999999840e+00 1.393661471659781270e+00
2.839999999999999858e+00 1.384857556163350045e+00
2.859999999999999876e+00 1.376123465873052787e+00
2.879999999999999893e+00 1.367458649970870965e+00
2.899999999999999911e+00 1.358862568332014131e+00
2.919999999999999929e+00 1.350334669199826809e+00
2.939999999999999947e+00 1.341874411973568826e+00
2.959999999999999964e+00 1.333481244984892289e+00
2.979999999999999982e+00 1.325154628131893331e+00
3.000000000000000000e+00 1.316894010768587364e+00
3.020000000000000018e+00 1.308698854177064774e+00
3.040000000000000036e+00 1.300568609581104651e+00
3.060000000000000053e+00 1.292502740448210785e+00
3.080000000000000071e+00 1.284500700638583348e+00
3.100000000000000089e+00 1.276561956528768249e+00
3.120000000000000107e+00 1.268685965306913355e+00
3.140000000000000124e+00 1.260872196909738507e+00
3.160000000000000142e+00 1.253120112475050840e+00
3.180000000000000160e+00 1.245429186083714335e+00
3.200000000000000178e+00 1.237798883380102799e+00
3.220000000000000195e+00 1.230228683110749621e+00
3.240000000000000213e+00 1.222718055923452285e+00
3.260000000000000231e+00 1.215266485694229903e+00
3.280000000000000249e+00 1.207873448515558890e+00
3.300000000000000266e+00 1.200538433803258309e+00
3.320000000000000284e+00 1.193260923484328107e+00
3.339999999999999858e+00 1.186040412875381644e+00
3.359999999999999876e+00 1.178876390080327852e+00
3.379999999999999893e+00 1.171768356631937236e+00
3.399999999999999911e+00 1.164715807109641510e+00
3.419999999999999929e+00 1.157718249535812038e+00
3.439999999999999947e+00 1.150775185223691155e+00
3.459999999999999964e+00 1.143886128919997081e+00
3.479999999999999982e+00 1.137050588892999370e+00
3.500000000000000000e+00 1.130268086813051243e+00
3.520000000000000018e+00 1.123538138090615313e+00
3.540000000000000036e+00 1.116860271486319833e+00
3.560000000000000053e+00 1.110234009708757519e+00
3.580000000000000071e+00 1.103658888745666866e+00
3.600000000000000089e+00 1.097134438731100170e+00
3.620000000000000107e+00 1.090660202989366168e+00
3.640000000000000124e+00 1.084235719181160906e+00
3.660000000000000142e+00 1.077860538051923722e+00
3.680000000000000160e+00 1.071534204866314566e+00
3.700000000000000178e+00 1.065256277852632882e+00
3.720000000000000195e+00 1.059026309935074517e+00
3.740000000000000213e+00 1.052843866865889488e+00
3.760000000000000231e+00 1.046708509264595355e+00
3.780000000000000249e+00 1.040619810429594061e+00
3.800000000000000266e+00 1.034577338693563719e+00
3.820000000000000284e+00 1.028580674906258707e+00
3.839999999999999858e+00 1.022629395115091766e+00
3.859999999999999876e+00 1.016723087710888818e+00
3.879999999999999893e+00 1.010861336442675729e+00
3.899999999999999911e+00 1.005043737218192623e+00
3.919999999999999929e+00 9.992698814617172465e-01
3.939999999999999947e+00 9.935393725611650906e-01
3.959999999999999964e+00 9.878518095778037189e-01
3.979999999999999982e+00 9.822068033317898905e-01
4.000000000000000000e+00 9.766039604724502388e-01
4.020000000000000462e+00 9.710428991941597587e-01
4.040000000000000036e+00 9.655232336758421408e-01
4.060000000000000497e+00 9.600445894191481644e-01
4.080000000000000071e+00 9.546065880656721125e-01
4.099999999999999645e+00 9.492088623494165933e-01
4.120000000000000107e+00 9.438510413002192401e-01
4.139999999999999680e+00 9.385327648025114655e-01
4.160000000000000142e+00 9.332536691933380757e-01
4.179999999999999716e+00 9.280134014194628689e-01
4.200000000000000178e+00 9.228116050382942914e-01
4.219999999999999751e+00 9.176479339654760592e-01
4.240000000000000213e+00 9.125220388869114130e-01
4.259999999999999787e+00 9.074335805889787165e-01
4.280000000000000249e+00 9.023822167898547519e-01
4.299999999999999822e+00 8.973676150445387689e-01
4.320000000000000284e+00 8.923894400035369268e-01
4.339999999999999858e+00 8.874473658849278968e-01
4.360000000000000320e+00 8.825410641684615642e-01
4.379999999999999893e+00 8.776702156269575728e-01
4.400000000000000355e+00 8.728344984637047554e-01
4.419999999999999929e+00 8.680335998955382992e-01
4.440000000000000391e+00 8.632672047414570171e-01
4.459999999999999964e+00 8.585350065497338035e-01
4.480000000000000426e+00 8.538366966455607221e-01
4.500000000000000000e+00 8.491719747945825070e-01
4.520000000000000462e+00 8.445405387173555711e-01
4.540000000000000036e+00 8.399420942817856783e-01
4.560000000000000497e+00 8.353763454920434262e-01
4.580000000000000071e+00 8.308430042024055329e-01
4.600000000000000533e+00 8.263417805883003231e-01
4.620000000000000107e+00 8.218723923740900439e-01
4.639999999999999680e+00 8.174345557938004214e-01
4.660000000000000142e+00 8.130279943254244968e-01
4.679999999999999716e+00 8.086524301488824396e-01
4.700000000000000178e+00 8.043075923794790194e-01
4.719999999999999751e+00 7.999932090305340582e-01
4.740000000000000213e+00 7.957090147386564061e-01
4.759999999999999787e+00 7.914547432384919645e-01
4.780000000000000249e+00 7.872301345725121191e-01
4.799999999999999822e+00 7.830349280852273441e-01
4.820000000000000284e+00 7.788688691102415573e-01
4.839999999999999858e+00 7.747317024912613315e-01
4.860000000000000320e+00 7.706231787392006094e-01
4.879999999999999893e+00 7.665430480872376107e-01
4.900000000000000355e+00 7.624910661107866527e-01
4.919999999999999929e+00 7.584669883238590593e-01
4.940000000000000391e+00 7.544705752547483657e-01
4.959999999999999964e+00 7.505015875908652712e-01
4.980000000000000426e+00 7.465597907030079305e-01
5.000000000000000000e+00 7.426449503458579793e-01
5.020000000000000462e+00 7.387568366237596829e-01
5.040000000000000036e+00 7.348952202539403844e-01
5.060000000000000497e+00 7.310598759667552571e-01
5.080000000000000071e+00 7.272505793387445960e-01
5.100000000000000533e+00 7.234671096203039165e-01
5.120000000000000107e+00 7.197092471456016938e-01
5.139999999999999680e+00 7.159767755806735190e-01
5.160000000000000142e+00 7.122694799172474278e-01
5.179999999999999716e+00 7.085871481342802536e-01
5.200000000000000178e+00 7.049295697826511997e-01
5.219999999999999751e+00 7.012965370531871745e-01
5.240000000000000213e+00 6.976878439592167913e-01
5.259999999999999787e+00 6.941032868041461246e-01
5.280000000000000249e+00 6.905426639687815005e-01
5.299999999999999822e+00 6.870057757715531954e-01
5.320000000000000284e+00 6.834924248675382508e-01
5.339999999999999858e+00 6.800024154944470656e-01
5.360000000000000320e+00 6.765355544902064144e-01
5.379999999999999893e+00 6.730916499178218881e-01
5.400000000000000355e+00 6.696705127084492393e-01
5.419999999999999929e+00 6.662719546582485108e-01
5.440000000000000391e+00 6.628957907037824615e-01
5.459999999999999964e+00 6.595418362840056448e-01
5.480000000000000426e+00 6.562099102548774043e-01
5.500000000000000000e+00 6.528998316096350507e-01
5.520000000000000462e+00 6.496114230394287592e-01
5.540000000000000036e+00 6.463445070050393149e-01
5.560000000000000497e+00 6.430989099504119677e-01
5.580000000000000071e+00 6.398744577189695582e-01
5.600000000000000533e+00 6.366709804268473327e-01
5.620000000000000107e+00 6.334883072169642526e-01
5.639999999999999680e+00 6.303262717988319386e-01
5.660000000000000142e+00 6.271847065335348637e-01
5.679999999999999716e+00 6.240634486469115449e-01
5.700000000000000178e+00 6.209623336386058678e-01
5.719999999999999751e+00 6.178812021754968020e-01
5.740000000000000213e+00 6.148198928179618994e-01
5.759999999999999787e+00 6.117782496003671966e-01
5.780000000000000249e+00 6.087561140676824856e-01
5.799999999999999822e+00 6.057533335499266647e-01
5.820000000000000284e+00 6.027697525022657210e-01
5.839999999999999858e+00 5.998052214802290782e-01
5.860000000000000320e+00 5.968595877764103497e-01
5.879999999999999893e+00 5.939327051033889138e-01
5.900000000000000355e+00 5.910244235201153051e-01
5.919999999999999929e+00 5.881345998293980859e-01
5.940000000000000391e+00 5.852630867870572962e-01
5.959999999999999964e+00 5.824097442209386077e-01
5.980000000000000426e+00 5.795744275158801750e-01
6.000000000000000000e+00 5.767569994611680961e-01
6.020000000000000462e+00 5.739573180043415768e-01
6.040000000000000036e+00 5.711752488340959832e-01
6.060000000000000497e+00 5.684106523959320256e-01
6.080000000000000071e+00 5.656633972174730518e-01
6.100000000000000533e+00 5.629333461789141069e-01
6.120000000000000107e+00 5.602203705878312512e-01
6.140000000000000568e+00 5.575243356973732523e-01
6.160000000000000142e+00 5.548451155375812016e-01
6.179999999999999716e+00 5.521825776742235181e-01
6.200000000000000178e+00 5.495365988037816951e-01
6.219999999999999751e+00 5.469070487457688978e-01
6.240000000000000213e+00 5.442938068085038106e-01
6.259999999999999787e+00 5.416967450077300184e-01
6.280000000000000249e+00 5.391157452104021752e-01
6.299999999999999822e+00 5.365506815723718459e-01
6.320000000000000284e+00 5.340014384673990033e-01
6.339999999999999858e+00 5.314678921366166042e-01
6.360000000000000320e+00 5.289499294100979965e-01
6.379999999999999893e+00 5.264474285607689819e-01
6.400000000000000355e+00 5.239602788258412858e-01
6.419999999999999929e+00 5.214883604577744691e-01
6.440000000000000391e+00 5.190315650530227254e-01
6.459999999999999964e+00 5.165897747926027073e-01
6.480000000000000426e+00 5.141628835855780455e-01
6.500000000000000000e+00 5.117507754917108853e-01
6.520000000000000462e+00 5.093533466872633975e-01
6.540000000000000036e+00 5.069704830621546421e-01
6.560000000000000497e+00 5.046020830156388026e-01
6.580000000000000071e+00 5.022480342203140546e-01
6.600000000000000533e+00 4.999082372553923515e-01
6.620000000000000107e+00 4.975825815298383081e-01
6.640000000000000568e+00 4.952709697609326001e-01
6.660000000000000142e+00 4.929732930487394915e-01
6.679999999999999716e+00 4.906894562078398248e-01
6.700000000000000178e+00 4.884193519852468302e-01
6.719999999999999751e+00 4.861628872531644219e-01
6.740000000000000213e+00 4.839199563623980405e-01
6.759999999999999787e+00 4.816904682041645569e-01
6.780000000000000249e+00 4.794743186909563581e-01
6.799999999999999822e+00 4.772714186954409854e-01
6.820000000000000284e+00 4.750816656506295921e-01
6.839999999999999858e+00 4.729049723740981204e-01
6.860000000000000320e+00 4.707412377792112856e-01
6.879999999999999893e+00 4.685903765928944864e-01
6.900000000000000355e+00 4.664522891695995765e-01
6.919999999999999929e+00 4.643268921110177971e-01
6.940000000000000391e+00 4.622140871743602442e-01
6.959999999999999964e+00 4.601137928024449653e-01
6.980000000000000426e+00 4.580259121177573389e-01
7.000000000000000000e+00 4.559503653715336613e-01
7.020000000000000462e+00 4.538870570149446948e-01
7.040000000000000036e+00 4.518359090758310992e-01
7.060000000000000497e+00 4.497968272982571514e-01
7.080000000000000071e+00 4.477697354557337306e-01
7.100000000000000533e+00 4.457545405502753577e-01
7.120000000000000107e+00 4.437511680709908535e-01
7.140000000000000568e+00 4.417595262436462833e-01
7.160000000000000142e+00 4.397795422437146828e-01
7.179999999999999716e+00 4.378111254873210401e-01
7.200000000000000178e+00 4.358542048078830056e-01
7.219999999999999751e+00 4.339086907791928072e-01
7.240000000000000213e+00 4.319745138649958016e-01
7.259999999999999787e+00 4.300515857648247176e-01
7.280000000000000249e+00 4.281398385459085909e-01
7.299999999999999822e+00 4.262391850022449469e-01
7.320000000000000284e+00 4.243495587784664180e-01
7.339999999999999858e+00 4.224708737324939789e-01
7.360000000000000320e+00 4.206030650610245725e-01
7.379999999999999893e+00 4.187460476559631828e-01
7.400000000000000355e+00 4.168997582414579184e-01
7.419999999999999929e+00 4.150641127141495579e-01
7.440000000000000391e+00 4.132390493017292221e-01
7.459999999999999964e+00 4.114244848768964236e-01
7.480000000000000426e+00 4.096203591476684780e-01
7.500000000000000000e+00 4.078265899347789936e-01
7.520000000000000462e+00 4.060431184040227404e-01
7.540000000000000036e+00 4.042698632966820194e-01
7.560000000000000497e+00 4.025067672144469477e-01
7.580000000000000071e+00 4.007537497922624148e-01
7.600000000000000533e+00 3.990107550464658259e-01
7.620000000000000107e+00 3.972777034792939199e-01
7.640000000000000568e+00 3.955545405011193227e-01
7.660000000000000142e+00 3.938411874556700387e-01
7.679999999999999716e+00 3.921375911273481951e-01
7.700000000000000178e+00 3.904436736760377169e-01
7.719999999999999751e+00 3.887593832407690297e-01
7.740000000000000213e+00 3.870846427727956396e-01
7.759999999999999787e+00 3.854194017469598221e-01
7.780000000000000249e+00 3.837635838815292577e-01
7.799999999999999822e+00 3.821171399689087811e-01
7.820000000000000284e+00 3.804799944705475334e-01
7.839999999999999858e+00 3.788520994787256679e-01
7.860000000000000320e+00 3.772333801746321491e-01
7.879999999999999893e+00 3.756237899332868779e-01
