# Electrodo circular de radio 6 mm y espesor 710.0 um.
# Volumen de simulacion (convencion z,y,x):
# N: 1024 x 1024 x 1024 | voxelSize:  0.02mm x 0.02mm x 0.02mm | FOV:  20.48mm x 20.48mm x 20.48mm
# 
# z [mm]		 delta[ppm]
0.000000000000000000e+00 3.486430074850103367e+00
2.000000000000000042e-02 3.472207928431622292e+00
4.000000000000000083e-02 3.457654779165730830e+00
5.999999999999999778e-02 3.442781289093614472e+00
8.000000000000000167e-02 3.427598081832498256e+00
1.000000000000000056e-01 3.412115882962371671e+00
1.199999999999999956e-01 3.396345461705620572e+00
1.400000000000000133e-01 3.380297648320199411e+00
1.600000000000000033e-01 3.363983294155888704e+00
1.799999999999999933e-01 3.347413276220329692e+00
2.000000000000000111e-01 3.330598464597627206e+00
2.200000000000000011e-01 3.313549723731349150e+00
2.399999999999999911e-01 3.296277882602042908e+00
2.600000000000000089e-01 3.278793735488152006e+00
2.800000000000000266e-01 3.261108013884930212e+00
2.999999999999999889e-01 3.243231387644981645e+00
3.200000000000000067e-01 3.225174438136899635e+00
3.400000000000000244e-01 3.206947660259418242e+00
3.599999999999999867e-01 3.188561436666958127e+00
3.800000000000000044e-01 3.170026040934302625e+00
4.000000000000000222e-01 3.151351612736133845e+00
4.199999999999999845e-01 3.132548162341134645e+00
4.400000000000000022e-01 3.113625546702314395e+00
4.600000000000000200e-01 3.094593475388049963e+00
4.799999999999999822e-01 3.075461487540751104e+00
5.000000000000000000e-01 3.056238959308651637e+00
5.200000000000000178e-01 3.036935081644623224e+00
5.400000000000000355e-01 3.017558869266254273e+00
5.600000000000000533e-01 2.998119139255519983e+00
5.799999999999999600e-01 2.978624521548459914e+00
5.999999999999999778e-01 2.959083438295521340e+00
6.199999999999999956e-01 2.939504115859429945e+00
6.400000000000000133e-01 2.919894564884170318e+00
6.600000000000000311e-01 2.900262593762190644e+00
6.800000000000000488e-01 2.880615789355777778e+00
7.000000000000000666e-01 2.860961531879930408e+00
7.199999999999999734e-01 2.841306976210573598e+00
7.399999999999999911e-01 2.821659068118230085e+00
7.600000000000000089e-01 2.802024526094155199e+00
7.800000000000000266e-01 2.782409858860968033e+00
8.000000000000000444e-01 2.762821347642119285e+00
8.200000000000000622e-01 2.743265064869385927e+00
8.399999999999999689e-01 2.723746856820044915e+00
8.599999999999999867e-01 2.704272363436922788e+00
8.800000000000000044e-01 2.684847001255440180e+00
9.000000000000000222e-01 2.665475984249787267e+00
9.200000000000000400e-01 2.646164306973513458e+00
9.400000000000000577e-01 2.626916766344814747e+00
9.599999999999999645e-01 2.607737944925204054e+00
9.799999999999999822e-01 2.588632233557955242e+00
1.000000000000000000e+00 2.569603814712986711e+00
1.020000000000000018e+00 2.550656685894703291e+00
1.040000000000000036e+00 2.531794642984315669e+00
1.060000000000000053e+00 2.513021304336640505e+00
1.080000000000000071e+00 2.494340094056192836e+00
1.100000000000000089e+00 2.475754266706471363e+00
1.120000000000000107e+00 2.457266890460807041e+00
1.140000000000000124e+00 2.438880872352276796e+00
1.159999999999999920e+00 2.420598941246246749e+00
1.179999999999999938e+00 2.402423673564103801e+00
1.199999999999999956e+00 2.384357476029761003e+00
1.219999999999999973e+00 2.366402611805659362e+00
1.239999999999999991e+00 2.348561182971728112e+00
1.260000000000000009e+00 2.330835157017463910e+00
1.280000000000000027e+00 2.313226349017352579e+00
1.300000000000000044e+00 2.295736448428162824e+00
1.320000000000000062e+00 2.278367000930831221e+00
1.340000000000000080e+00 2.261119435487314533e+00
1.360000000000000098e+00 2.243995045824163093e+00
1.380000000000000115e+00 2.226995017708307323e+00
1.400000000000000133e+00 2.210120410052974993e+00
1.419999999999999929e+00 2.193372182376498003e+00
1.439999999999999947e+00 2.176751175515954539e+00
1.459999999999999964e+00 2.160258139237460906e+00
1.479999999999999982e+00 2.143893712547659813e+00
1.500000000000000000e+00 2.127658451428045439e+00
1.520000000000000018e+00 2.111552808738367482e+00
1.540000000000000036e+00 2.095577162051255993e+00
1.560000000000000053e+00 2.079731793145552121e+00
1.580000000000000071e+00 2.064016915920805495e+00
1.600000000000000089e+00 2.048432655481787990e+00
1.620000000000000107e+00 2.032979076115428274e+00
1.640000000000000124e+00 2.017656159970859786e+00
1.660000000000000142e+00 2.002463835083973631e+00
1.679999999999999938e+00 1.987401953659879261e+00
1.699999999999999956e+00 1.972470320132510446e+00
1.719999999999999973e+00 1.957668669058785449e+00
1.739999999999999991e+00 1.942996693202646119e+00
1.760000000000000009e+00 1.928454021052050438e+00
1.780000000000000027e+00 1.914040244918473244e+00
1.800000000000000044e+00 1.899754898089622390e+00
1.820000000000000062e+00 1.885597482936818503e+00
1.840000000000000080e+00 1.871567447717601418e+00
1.860000000000000098e+00 1.857664214684518811e+00
1.880000000000000115e+00 1.843887156553028372e+00
1.900000000000000133e+00 1.830235624606121769e+00
1.919999999999999929e+00 1.816708924843729367e+00
1.939999999999999947e+00 1.803306346078340061e+00
1.959999999999999964e+00 1.790027135782890078e+00
1.979999999999999982e+00 1.776870528173032371e+00
2.000000000000000000e+00 1.763835719770979749e+00
2.020000000000000018e+00 1.750921897470459898e+00
2.040000000000000036e+00 1.738128213834393865e+00
2.060000000000000053e+00 1.725453815138820346e+00
2.080000000000000071e+00 1.712897816422476849e+00
2.100000000000000089e+00 1.700459329506096351e+00
2.120000000000000107e+00 1.688137437812166963e+00
2.140000000000000124e+00 1.675931224356014937e+00
2.160000000000000142e+00 1.663839746353971805e+00
2.180000000000000160e+00 1.651862063182645501e+00
2.200000000000000178e+00 1.639997210793727733e+00
2.220000000000000195e+00 1.628244229637714646e+00
2.240000000000000213e+00 1.616602138903432628e+00
2.260000000000000231e+00 1.605069964402321192e+00
2.280000000000000249e+00 1.593646712650600650e+00
2.300000000000000266e+00 1.582331398710035142e+00
2.319999999999999840e+00 1.571123020130411385e+00
2.339999999999999858e+00 1.560020584742460859e+00
2.359999999999999876e+00 1.549023084478112322e+00
2.379999999999999893e+00 1.538129523110987940e+00
2.399999999999999911e+00 1.527338889971568303e+00
2.419999999999999929e+00 1.516650187630411040e+00
2.439999999999999947e+00 1.506062405525116166e+00
2.459999999999999964e+00 1.495574547581131730e+00
2.479999999999999982e+00 1.485185605767042949e+00
2.500000000000000000e+00 1.474894587647559208e+00
2.520000000000000018e+00 1.464700489883366208e+00
2.540000000000000036e+00 1.454602325710597777e+00
2.560000000000000053e+00 1.444599098401146087e+00
2.580000000000000071e+00 1.434689828662642386e+00
2.600000000000000089e+00 1.424873528074789730e+00
2.620000000000000107e+00 1.415149226403651150e+00
2.640000000000000124e+00 1.405515945029220948e+00
2.660000000000000142e+00 1.395972724167518830e+00
2.680000000000000160e+00 1.386518596304342932e+00
2.700000000000000178e+00 1.377152613318435082e+00
2.720000000000000195e+00 1.367873819936003876e+00
2.740000000000000213e+00 1.358681280747986442e+00
2.760000000000000231e+00 1.349574053699655884e+00
2.780000000000000249e+00 1.340551216994799955e+00
2.800000000000000266e+00 1.331611842634382370e+00
2.819999999999999840e+00 1.322755023200256508e+00
2.839999999999999858e+00 1.313979845456590079e+00
2.859999999999999876e+00 1.305285417005547233e+00
2.879999999999999893e+00 1.296670839964877864e+00
2.899999999999999911e+00 1.288135237487820328e+00
2.919999999999999929e+00 1.279677727530025511e+00
2.939999999999999947e+00 1.271297449225756271e+00
2.959999999999999964e+00 1.262993536757027746e+00
2.979999999999999982e+00 1.254765145578069063e+00
3.000000000000000000e+00 1.246611426399305333e+00
3.020000000000000018e+00 1.238531551251927265e+00
3.040000000000000036e+00 1.230524687599077183e+00
3.060000000000000053e+00 1.222590024232240724e+00
3.080000000000000071e+00 1.214726745521816254e+00
3.100000000000000089e+00 1.206934057136932914e+00
3.120000000000000107e+00 1.199211160447324342e+00
3.140000000000000124e+00 1.191557278058109404e+00
3.160000000000000142e+00 1.183971628374689278e+00
3.180000000000000160e+00 1.176453450943952150e+00
3.200000000000000178e+00 1.169001981193684037e+00
3.220000000000000195e+00 1.161616475571609186e+00
3.240000000000000213e+00 1.154296186470614272e+00
3.260000000000000231e+00 1.147040387156975427e+00
3.280000000000000249e+00 1.139848346892518016e+00
3.300000000000000266e+00 1.132719355643330594e+00
3.320000000000000284e+00 1.125652699409782631e+00
3.339999999999999858e+00 1.118647684707030798e+00
3.359999999999999876e+00 1.111703614113638272e+00
3.379999999999999893e+00 1.104819810515123457e+00
3.399999999999999911e+00 1.097995592881775284e+00
3.419999999999999929e+00 1.091230300266494924e+00
3.439999999999999947e+00 1.084523267822222303e+00
3.459999999999999964e+00 1.077873850545328693e+00
3.479999999999999982e+00 1.071281399542896695e+00
3.500000000000000000e+00 1.064745285512936457e+00
3.520000000000000018e+00 1.058264875271615946e+00
3.540000000000000036e+00 1.051839554961568002e+00
3.560000000000000053e+00 1.045468706849033369e+00
3.580000000000000071e+00 1.039151732251540228e+00
3.600000000000000089e+00 1.032888028614771025e+00
3.620000000000000107e+00 1.026677012150938983e+00
3.640000000000000124e+00 1.020518095205032560e+00
3.660000000000000142e+00 1.014410708595258281e+00
3.680000000000000160e+00 1.008354279278181664e+00
3.700000000000000178e+00 1.002348252382611049e+00
3.720000000000000195e+00 9.963920691830546739e-01
3.740000000000000213e+00 9.904851888184750264e-01
3.760000000000000231e+00 9.846270665833154467e-01
3.780000000000000249e+00 9.788171753226037053e-01
3.800000000000000266e+00 9.730549840497001446e-01
3.820000000000000284e+00 9.673399790092718220e-01
3.839999999999999858e+00 9.616716426307823085e-01
3.859999999999999876e+00 9.560494742509173527e-01
3.879999999999999893e+00 9.504729694117107774e-01
3.899999999999999911e+00 9.449416402340659049e-01
3.919999999999999929e+00 9.394549950692968610e-01
3.939999999999999947e+00 9.340125585154452903e-01
3.959999999999999964e+00 9.286138514309099090e-01
3.979999999999999982e+00 9.232584105852940093e-01
4.000000000000000000e+00 9.179457690437168305e-01
4.020000000000000462e+00 9.126754754440024042e-01
4.040000000000000036e+00 9.074470747600958953e-01
4.060000000000000497e+00 9.022601271975074777e-01
4.080000000000000071e+00 8.971141893441823001e-01
4.099999999999999645e+00 8.920088326761486108e-01
4.120000000000000107e+00 8.869436251040737629e-01
4.139999999999999680e+00 8.819181490811180968e-01
4.160000000000000142e+00 8.769319835533694318e-01
4.179999999999999716e+00 8.719847216619797114e-01
4.200000000000000178e+00 8.670759531054796909e-01
4.219999999999999751e+00 8.622052814283860389e-01
4.240000000000000213e+00 8.573723068033574091e-01
4.259999999999999787e+00 8.525766428984898893e-01
4.280000000000000249e+00 8.478179000871575166e-01
4.299999999999999822e+00 8.430957018862917929e-01
4.320000000000000284e+00 8.384096686016891953e-01
4.339999999999999858e+00 8.337594333296427518e-01
4.360000000000000320e+00 8.291446260453733119e-01
4.379999999999999893e+00 8.245648891604620001e-01
4.400000000000000355e+00 8.200198620619867373e-01
4.419999999999999929e+00 8.155091962182773324e-01
4.440000000000000391e+00 8.110325401762388253e-01
4.459999999999999964e+00 8.065895542080104841e-01
4.480000000000000426e+00 8.021798957739206815e-01
4.500000000000000000e+00 7.978032337026775833e-01
4.520000000000000462e+00 7.934592341272750371e-01
4.540000000000000036e+00 7.891475741914606434e-01
4.560000000000000497e+00 7.848679284658396371e-01
4.580000000000000071e+00 7.806199821734118860e-01
4.600000000000000533e+00 7.764034180930377005e-01
4.620000000000000107e+00 7.722179292968978093e-01
4.639999999999999680e+00 7.680632065484434001e-01
4.660000000000000142e+00 7.639389505447056194e-01
4.679999999999999716e+00 7.598448598157186984e-01
4.700000000000000178e+00 7.557806424646887899e-01
4.719999999999999751e+00 7.517460045758610487e-01
4.740000000000000213e+00 7.477406614455931466e-01
4.759999999999999787e+00 7.437643265055373654e-01
4.780000000000000249e+00 7.398167220377332987e-01
4.799999999999999822e+00 7.358975686199428212e-01
4.820000000000000284e+00 7.320065953179567542e-01
4.839999999999999858e+00 7.281435296597903450e-01
4.860000000000000320e+00 7.243081072984531854e-01
4.879999999999999893e+00 7.205000625217207189e-01
4.900000000000000355e+00 7.167191373786623299e-01
4.919999999999999929e+00 7.129650727315930414e-01
4.940000000000000391e+00 7.092376168397176439e-01
4.959999999999999964e+00 7.055365169598560859e-01
4.980000000000000426e+00 7.018615273806072530e-01
5.000000000000000000e+00 6.982124015783415238e-01
5.020000000000000462e+00 6.945888996953645256e-01
5.040000000000000036e+00 6.909907812576304709e-01
5.060000000000000497e+00 6.874178120904380629e-01
5.080000000000000071e+00 6.838697576042531701e-01
5.100000000000000533e+00 6.803463891414889275e-01
5.120000000000000107e+00 6.768474778368224198e-01
5.139999999999999680e+00 6.733728003886769731e-01
5.160000000000000142e+00 6.699221335003177069e-01
5.179999999999999716e+00 6.664952590696936463e-01
5.200000000000000178e+00 6.630919592175954502e-01
5.219999999999999751e+00 6.597120208895673743e-01
5.240000000000000213e+00 6.563552314773276608e-01
5.259999999999999787e+00 6.530213828264807008e-01
5.280000000000000249e+00 6.497102674574125603e-01
5.299999999999999822e+00 6.464216819725946417e-01
5.320000000000000284e+00 6.431554238830613501e-01
5.339999999999999858e+00 6.399112944091346344e-01
5.360000000000000320e+00 6.366890959186108923e-01
5.379999999999999893e+00 6.334886341147527578e-01
5.400000000000000355e+00 6.303097160922569442e-01
5.419999999999999929e+00 6.271521519063840699e-01
5.440000000000000391e+00 6.240157532527804696e-01
5.459999999999999964e+00 6.209003344116565959e-01
5.480000000000000426e+00 6.178057115574668856e-01
5.500000000000000000e+00 6.147317030720755859e-01
5.520000000000000462e+00 6.116781294903088639e-01
5.540000000000000036e+00 6.086448131760676672e-01
5.560000000000000497e+00 6.056315789097157509e-01
5.580000000000000071e+00 6.026382529211180561e-01
5.600000000000000533e+00 5.996646641248427612e-01
5.620000000000000107e+00 5.967106425041180939e-01
5.639999999999999680e+00 5.937760209997842153e-01
5.660000000000000142e+00 5.908606332391793670e-01
5.679999999999999716e+00 5.879643160847833894e-01
5.700000000000000178e+00 5.850869067020608716e-01
5.719999999999999751e+00 5.822282457737122385e-01
5.740000000000000213e+00 5.793881739004967946e-01
5.759999999999999787e+00 5.765665354870233017e-01
5.780000000000000249e+00 5.737631744695960156e-01
5.799999999999999822e+00 5.709779388794462562e-01
5.820000000000000284e+00 5.682106758916443123e-01
5.839999999999999858e+00 5.654612370716805003e-01
5.860000000000000320e+00 5.627294727395031337e-01
5.879999999999999893e+00 5.600152379053574547e-01
5.900000000000000355e+00 5.573183859429703402e-01
5.919999999999999929e+00 5.546387752205850230e-01
5.940000000000000391e+00 5.519762620773371875e-01
5.959999999999999964e+00 5.493307081553920890e-01
5.980000000000000426e+00 5.467019726735335983e-01
6.000000000000000000e+00 5.440899204663680599e-01
6.020000000000000462e+00 5.414944135491358557e-01
6.040000000000000036e+00 5.389153198699148106e-01
6.060000000000000497e+00 5.363525041596577392e-01
6.080000000000000071e+00 5.338058374033881615e-01
6.100000000000000533e+00 5.312751869694376516e-01
6.120000000000000107e+00 5.287604268056085299e-01
6.140000000000000568e+00 5.262614268415762853e-01
6.160000000000000142e+00 5.237780639160457552e-01
6.179999999999999716e+00 5.213102104462615793e-01
6.200000000000000178e+00 5.188577460921814932e-01
6.219999999999999751e+00 5.164205456869898070e-01
6.240000000000000213e+00 5.139984916443952612e-01
6.259999999999999787e+00 5.115914611440245396e-01
6.280000000000000249e+00 5.091993392879192726e-01
6.299999999999999822e+00 5.068220055346593922e-01
6.320000000000000284e+00 5.044593476112252395e-01
6.339999999999999858e+00 5.021112471896507223e-01
6.360000000000000320e+00 4.997775945604167602e-01
6.379999999999999893e+00 4.974582735453985105e-01
6.400000000000000355e+00 4.951531769390389304e-01
6.419999999999999929e+00 4.928621906513069306e-01
6.440000000000000391e+00 4.905852099229003338e-01
6.459999999999999964e+00 4.883221226919008395e-01
6.480000000000000426e+00 4.860728265893447531e-01
6.500000000000000000e+00 4.838372115231868720e-01
6.520000000000000462e+00 4.816151774606045599e-01
6.540000000000000036e+00 4.794066162228395878e-01
6.560000000000000497e+00 4.772114300606887238e-01
6.580000000000000071e+00 4.750295126537301682e-01
6.600000000000000533e+00 4.728607684854796434e-01
6.620000000000000107e+00 4.707050930404456657e-01
6.640000000000000568e+00 4.685623929855311509e-01
6.660000000000000142e+00 4.664325655582955976e-01
6.679999999999999716e+00 4.643155195612187480e-01
6.700000000000000178e+00 4.622111539344815334e-01
6.719999999999999751e+00 4.601193795698040323e-01
6.740000000000000213e+00 4.580400970609931899e-01
6.759999999999999787e+00 4.559732193440997894e-01
6.780000000000000249e+00 4.539186486189043523e-01
6.799999999999999822e+00 4.518762998222705107e-01
6.820000000000000284e+00 4.498460767136414629e-01
6.839999999999999858e+00 4.478278961885194254e-01
6.860000000000000320e+00 4.458216635209563128e-01
6.879999999999999893e+00 4.438272975242106844e-01
6.900000000000000355e+00 4.418447049431603602e-01
6.919999999999999929e+00 4.398738064692038763e-01
6.940000000000000391e+00 4.379145102754214980e-01
6.959999999999999964e+00 4.359667388929567844e-01
6.980000000000000426e+00 4.340304018816545373e-01
7.000000000000000000e+00 4.321054235752009864e-01
7.020000000000000462e+00 4.301917148798544699e-01
7.040000000000000036e+00 4.282892018957842883e-01
7.060000000000000497e+00 4.263977968364240922e-01
7.080000000000000071e+00 4.245174275334819280e-01
7.100000000000000533e+00 4.226480074693411138e-01
7.120000000000000107e+00 4.207894661733909136e-01
7.140000000000000568e+00 4.189417183597737848e-01
7.160000000000000142e+00 4.171046952227489002e-01
7.179999999999999716e+00 4.152783126719779005e-01
7.200000000000000178e+00 4.134625035347948008e-01
7.219999999999999751e+00 4.116571848811071410e-01
7.240000000000000213e+00 4.098622911405222502e-01
7.259999999999999787e+00 4.080777405088045207e-01
7.280000000000000249e+00 4.063034689879844175e-01
7.299999999999999822e+00 4.045393958661985256e-01
7.320000000000000284e+00 4.027854586889842992e-01
7.339999999999999858e+00 4.010415778041949708e-01
7.360000000000000320e+00 3.993076922728627243e-01
7.379999999999999893e+00 3.975837234707407797e-01
7.400000000000000355e+00 3.958696119472213115e-01
7.419999999999999929e+00 3.941652800749096963e-01
7.440000000000000391e+00 3.924706698652737358e-01
7.459999999999999964e+00 3.907857046575160531e-01
7.480000000000000426e+00 3.891103278997229409e-01
7.500000000000000000e+00 3.874444638681536768e-01
7.520000000000000462e+00 3.857880574228551573e-01
7.540000000000000036e+00 3.841410337483474047e-01
7.560000000000000497e+00 3.825033390927690680e-01
7.580000000000000071e+00 3.808748995207529853e-01
7.600000000000000533e+00 3.792556626454112179e-01
7.620000000000000107e+00 3.776455553840503132e-01
7.640000000000000568e+00 3.760445266923835295e-01
7.660000000000000142e+00 3.744525043135569220e-01
7.679999999999999716e+00 3.728694385242223852e-01
7.700000000000000178e+00 3.712952578671803172e-01
7.719999999999999751e+00 3.697299139190622919e-01
7.740000000000000213e+00 3.681733359967078734e-01
7.759999999999999787e+00 3.666254769564468718e-01
7.780000000000000249e+00 3.650862668641488562e-01
7.799999999999999822e+00 3.635556598362167935e-01
7.820000000000000284e+00 3.620335866630703947e-01
7.839999999999999858e+00 3.605200027022071319e-01
7.860000000000000320e+00 3.590148394446772695e-01
7.879999999999999893e+00 3.575180534707220747e-01
