# Electrodo circular de radio 6 mm y espesor 710.0 um.
# Volumen de simulacion (convencion z,y,x):
# N: 1024 x 1024 x 1024 | voxelSize:  0.02mm x 0.02mm x 0.02mm | FOV:  20.48mm x 20.48mm x 20.48mm
# 
# z [mm]		 delta[ppm]
0.000000000000000000e+00 4.934848762718658577e+00
2.000000000000000042e-02 4.873349669742362167e+00
4.000000000000000083e-02 4.811227593366504074e+00
5.999999999999999778e-02 4.748587725676246762e+00
8.000000000000000167e-02 4.685533920768316207e+00
1.000000000000000056e-01 4.622167980499492401e+00
1.199999999999999956e-01 4.558589217913097791e+00
1.400000000000000133e-01 4.494894027105458711e+00
1.600000000000000033e-01 4.431175509364685183e+00
1.799999999999999933e-01 4.367523138071305766e+00
2.000000000000000111e-01 4.304022454263891184e+00
2.200000000000000011e-01 4.240754823437114851e+00
2.399999999999999911e-01 4.177797215587255586e+00
2.600000000000000089e-01 4.115222055224653452e+00
2.800000000000000266e-01 4.053097088823879979e+00
2.999999999999999889e-01 3.991485325267501327e+00
3.200000000000000067e-01 3.930444986686387310e+00
3.400000000000000244e-01 3.870029531341101059e+00
3.599999999999999867e-01 3.810287678459589600e+00
3.800000000000000044e-01 3.751263501701888714e+00
4.000000000000000222e-01 3.692996515242746192e+00
4.199999999999999845e-01 3.635521823669090491e+00
4.400000000000000022e-01 3.578870254892283498e+00
4.600000000000000200e-01 3.523068551612339228e+00
4.799999999999999822e-01 3.468139536533585865e+00
5.000000000000000000e-01 3.414102331102867982e+00
5.200000000000000178e-01 3.360972539535329595e+00
5.400000000000000355e-01 3.308762482045301212e+00
5.600000000000000533e-01 3.257481385989342559e+00
5.799999999999999600e-01 3.207135622872958169e+00
5.999999999999999778e-01 3.157728897110455790e+00
6.199999999999999956e-01 3.109262478378670203e+00
6.400000000000000133e-01 3.061735380773732640e+00
6.600000000000000311e-01 3.015144584334610300e+00
6.800000000000000488e-01 2.969485199532480024e+00
7.000000000000000666e-01 2.924750673828974801e+00
7.199999999999999734e-01 2.880932938320717618e+00
7.399999999999999911e-01 2.838022596931245367e+00
7.600000000000000089e-01 2.796009053593624394e+00
7.800000000000000266e-01 2.754880683064338420e+00
8.000000000000000444e-01 2.714624938238596741e+00
8.200000000000000622e-01 2.675228502625591531e+00
8.399999999999999689e-01 2.636677378284136175e+00
8.599999999999999867e-01 2.598957020745273017e+00
8.800000000000000044e-01 2.562052408663522129e+00
9.000000000000000222e-01 2.525948162462072766e+00
9.200000000000000400e-01 2.490628597175315928e+00
9.400000000000000577e-01 2.456077826375021367e+00
9.599999999999999645e-01 2.422279799875938000e+00
9.799999999999999822e-01 2.389218394627618647e+00
1.000000000000000000e+00 2.356877439020279574e+00
1.020000000000000018e+00 2.325240792439421167e+00
1.040000000000000036e+00 2.294292357876695387e+00
1.060000000000000053e+00 2.264016151779435937e+00
1.080000000000000071e+00 2.234396306579577107e+00
1.100000000000000089e+00 2.205417132355850907e+00
1.120000000000000107e+00 2.177063110761927600e+00
1.140000000000000124e+00 2.149318949877360829e+00
1.159999999999999920e+00 2.122169570868025712e+00
1.179999999999999938e+00 2.095600157248468154e+00
1.199999999999999956e+00 2.069596135451570174e+00
1.219999999999999973e+00 2.044143219570852654e+00
1.239999999999999991e+00 2.019227386865758866e+00
1.260000000000000009e+00 1.994834918904770049e+00
1.280000000000000027e+00 1.970952372889002158e+00
1.300000000000000044e+00 1.947566619980135583e+00
1.320000000000000062e+00 1.924664813195527735e+00
1.340000000000000080e+00 1.902234423581185441e+00
1.360000000000000098e+00 1.880263205313916330e+00
1.380000000000000115e+00 1.858739230269777387e+00
1.400000000000000133e+00 1.837650850866891838e+00
1.419999999999999929e+00 1.816986733483868521e+00
1.439999999999999947e+00 1.796735819486883656e+00
1.459999999999999964e+00 1.776887357869773032e+00
1.479999999999999982e+00 1.757430864833222861e+00
1.500000000000000000e+00 1.738356155947500703e+00
1.520000000000000018e+00 1.719653304585775588e+00
1.540000000000000036e+00 1.701312673850625456e+00
1.560000000000000053e+00 1.683324874109361380e+00
1.580000000000000071e+00 1.665680794875130877e+00
1.600000000000000089e+00 1.648371561645568084e+00
1.620000000000000107e+00 1.631388567887420482e+00
1.640000000000000124e+00 1.614723431342266924e+00
1.660000000000000142e+00 1.598368026228847105e+00
1.679999999999999938e+00 1.582314439147474827e+00
1.699999999999999956e+00 1.566555001585618889e+00
1.719999999999999973e+00 1.551082245527300341e+00
1.739999999999999991e+00 1.535888936324018683e+00
1.760000000000000009e+00 1.520968028093711011e+00
1.780000000000000027e+00 1.506312697000042222e+00
1.800000000000000044e+00 1.491916296508815520e+00
1.820000000000000062e+00 1.477772391103177041e+00
1.840000000000000080e+00 1.463874711451006894e+00
1.860000000000000098e+00 1.450217188571158333e+00
1.880000000000000115e+00 1.436793908954647758e+00
1.900000000000000133e+00 1.423599149187140922e+00
1.919999999999999929e+00 1.410627331057409339e+00
1.939999999999999947e+00 1.397873056633414102e+00
1.959999999999999964e+00 1.385331063384883876e+00
1.979999999999999982e+00 1.372996259704147404e+00
2.000000000000000000e+00 1.360863680063749470e+00
2.020000000000000018e+00 1.348928520968421640e+00
2.040000000000000036e+00 1.337186096164720173e+00
2.060000000000000053e+00 1.325631873006833716e+00
2.080000000000000071e+00 1.314261427731564735e+00
2.100000000000000089e+00 1.303070482217911774e+00
2.120000000000000107e+00 1.292054859338584549e+00
2.140000000000000124e+00 1.281210520091268013e+00
2.160000000000000142e+00 1.270533519035631276e+00
2.180000000000000160e+00 1.260020041772754507e+00
2.200000000000000178e+00 1.249666360475607085e+00
2.220000000000000195e+00 1.239468871692137819e+00
2.240000000000000213e+00 1.229424051975926302e+00
2.260000000000000231e+00 1.219528495987860728e+00
2.280000000000000249e+00 1.209778872233346902e+00
2.300000000000000266e+00 1.200171961437205503e+00
2.319999999999999840e+00 1.190704612393159056e+00
2.339999999999999858e+00 1.181373780586509215e+00
2.359999999999999876e+00 1.172176484161747245e+00
2.379999999999999893e+00 1.163109842767663382e+00
2.399999999999999911e+00 1.154171033648608846e+00
2.419999999999999929e+00 1.145357330686974429e+00
2.439999999999999947e+00 1.136666060623951147e+00
2.459999999999999964e+00 1.128094642274664716e+00
2.479999999999999982e+00 1.119640542884187795e+00
2.500000000000000000e+00 1.111301317491029561e+00
2.520000000000000018e+00 1.103074565424621678e+00
2.540000000000000036e+00 1.094957969793362240e+00
2.560000000000000053e+00 1.086949254129761400e+00
2.580000000000000071e+00 1.079046221979769626e+00
2.600000000000000089e+00 1.071246713702276088e+00
2.620000000000000107e+00 1.063548646137010278e+00
2.640000000000000124e+00 1.055949969565104674e+00
2.660000000000000142e+00 1.048448707433405236e+00
2.680000000000000160e+00 1.041042913483341215e+00
2.700000000000000178e+00 1.033730711510039368e+00
2.720000000000000195e+00 1.026510252666757550e+00
2.740000000000000213e+00 1.019379755237782792e+00
2.760000000000000231e+00 1.012337462126156717e+00
2.780000000000000249e+00 1.005381680619902740e+00
2.800000000000000266e+00 9.985107400707797787e-01
2.819999999999999840e+00 9.917230316339307183e-01
2.839999999999999858e+00 9.850169661458454406e-01
2.859999999999999876e+00 9.783910138180748062e-01
2.879999999999999893e+00 9.718436623225407134e-01
2.899999999999999911e+00 9.653734564205014301e-01
2.919999999999999929e+00 9.589789562637553999e-01
2.939999999999999947e+00 9.526587769405304718e-01
2.959999999999999964e+00 9.464115470010660003e-01
2.979999999999999982e+00 9.402359479026416444e-01
3.000000000000000000e+00 9.341306727683345024e-01
3.020000000000000018e+00 9.280944657138930909e-01
3.040000000000000036e+00 9.221260808483885407e-01
3.060000000000000053e+00 9.162243214660823476e-01
3.080000000000000071e+00 9.103879992980081770e-01
3.100000000000000089e+00 9.046159735524431644e-01
3.120000000000000107e+00 8.989071104263116618e-01
3.140000000000000124e+00 8.932603219783272763e-01
3.160000000000000142e+00 8.876745259093563600e-01
3.180000000000000160e+00 8.821486842527306305e-01
3.200000000000000178e+00 8.766817634325365649e-01
3.220000000000000195e+00 8.712727727560330981e-01
3.240000000000000213e+00 8.659207247590352541e-01
3.260000000000000231e+00 8.606246734857592173e-01
3.280000000000000249e+00 8.553836751303095509e-01
3.300000000000000266e+00 8.501968260896621832e-01
3.320000000000000284e+00 8.450632239104075571e-01
3.339999999999999858e+00 8.399820051009818656e-01
3.359999999999999876e+00 8.349523063926275190e-01
3.379999999999999893e+00 8.299733022973238006e-01
3.399999999999999911e+00 8.250441666920669270e-01
3.419999999999999929e+00 8.201641101093222197e-01
3.439999999999999947e+00 8.153323416534850043e-01
3.459999999999999964e+00 8.105481060110443225e-01
3.479999999999999982e+00 8.058106457081780638e-01
3.500000000000000000e+00 8.011192378281472015e-01
3.520000000000000018e+00 7.964731566187555067e-01
3.540000000000000036e+00 7.918717099048213637e-01
3.560000000000000053e+00 7.873142020543079100e-01
3.580000000000000071e+00 7.827999700740276845e-01
3.600000000000000089e+00 7.783283469430091195e-01
3.620000000000000107e+00 7.738986973799166780e-01
3.640000000000000124e+00 7.695103815522457147e-01
3.660000000000000142e+00 7.651627905042663880e-01
3.680000000000000160e+00 7.608553102503805565e-01
3.700000000000000178e+00 7.565873568526562121e-01
3.720000000000000195e+00 7.523583409067553518e-01
3.740000000000000213e+00 7.481677022584460879e-01
3.760000000000000231e+00 7.440148748901728171e-01
3.780000000000000249e+00 7.398993212662219321e-01
3.800000000000000266e+00 7.358204976280842136e-01
3.820000000000000284e+00 7.317778879581985363e-01
3.839999999999999858e+00 7.277709696919631988e-01
3.859999999999999876e+00 7.237992472902690100e-01
3.879999999999999893e+00 7.198622183760184923e-01
3.899999999999999911e+00 7.159594069059417309e-01
3.919999999999999929e+00 7.120903297391901754e-01
3.939999999999999947e+00 7.082545293991758806e-01
3.959999999999999964e+00 7.044515410818282808e-01
3.979999999999999982e+00 7.006809249984398136e-01
4.000000000000000000e+00 6.969422338308935982e-01
4.020000000000000462e+00 6.932350446467530070e-01
4.040000000000000036e+00 6.895589268087372048e-01
4.060000000000000497e+00 6.859134734535543565e-01
4.080000000000000071e+00 6.822982698626269826e-01
4.099999999999999645e+00 6.787129244963939767e-01
4.120000000000000107e+00 6.751570378332678590e-01
4.139999999999999680e+00 6.716302329513522684e-01
4.160000000000000142e+00 6.681321248423620629e-01
4.179999999999999716e+00 6.646623505329379844e-01
4.200000000000000178e+00 6.612205388801911665e-01
4.219999999999999751e+00 6.578063402250441394e-01
4.240000000000000213e+00 6.544193966758018455e-01
4.259999999999999787e+00 6.510593712861399984e-01
4.280000000000000249e+00 6.477259188330906081e-01
4.299999999999999822e+00 6.444187145125144234e-01
4.320000000000000284e+00 6.411374252175986443e-01
4.339999999999999858e+00 6.378817377448721126e-01
4.360000000000000320e+00 6.346513305792966797e-01
4.379999999999999893e+00 6.314459016040785411e-01
4.400000000000000355e+00 6.282651403981408533e-01
4.419999999999999929e+00 6.251087554431992155e-01
4.440000000000000391e+00 6.219764469393909145e-01
4.459999999999999964e+00 6.188679335032671869e-01
4.480000000000000426e+00 6.157829255070932373e-01
4.500000000000000000e+00 6.127211512615790001e-01
4.520000000000000462e+00 6.096823308843412059e-01
4.540000000000000036e+00 6.066662019614174062e-01
4.560000000000000497e+00 6.036724939500858200e-01
4.580000000000000071e+00 6.007009533133742529e-01
4.600000000000000533e+00 5.977513184624424492e-01
4.620000000000000107e+00 5.948233443584696190e-01
4.639999999999999680e+00 5.919167779995294643e-01
4.660000000000000142e+00 5.890313824844245483e-01
4.679999999999999716e+00 5.861669130489549628e-01
4.700000000000000178e+00 5.833231405864445218e-01
4.719999999999999751e+00 5.804998282380541275e-01
4.740000000000000213e+00 5.776967543648913184e-01
4.759999999999999787e+00 5.749136896970160615e-01
4.780000000000000249e+00 5.721504197521861679e-01
4.799999999999999822e+00 5.694067225479437777e-01
4.820000000000000284e+00 5.666823904622239061e-01
4.839999999999999858e+00 5.639772085128827994e-01
4.860000000000000320e+00 5.612909756555412022e-01
4.879999999999999893e+00 5.586234836346877231e-01
4.900000000000000355e+00 5.559745377142747413e-01
4.919999999999999929e+00 5.533439361045201510e-01
4.940000000000000391e+00 5.507314901209119373e-01
4.959999999999999964e+00 5.481370041905990753e-01
4.980000000000000426e+00 5.455602954355931455e-01
5.000000000000000000e+00 5.430011742626434934e-01
5.020000000000000462e+00 5.404594633665786851e-01
5.040000000000000036e+00 5.379349789072921384e-01
5.060000000000000497e+00 5.354275489293058854e-01
5.080000000000000071e+00 5.329369951295261920e-01
5.100000000000000533e+00 5.304631506892099058e-01
5.120000000000000107e+00 5.280058426359259816e-01
5.139999999999999680e+00 5.255649090842376969e-01
5.160000000000000142e+00 5.231401821953146625e-01
5.179999999999999716e+00 5.207315048227665333e-01
5.200000000000000178e+00 5.183387140731177123e-01
5.219999999999999751e+00 5.159616573533407635e-01
5.240000000000000213e+00 5.136001765354463178e-01
5.259999999999999787e+00 5.112541234023624259e-01
5.280000000000000249e+00 5.089233444196625822e-01
5.299999999999999822e+00 5.066076955765606016e-01
5.320000000000000284e+00 5.043070277678286528e-01
5.339999999999999858e+00 5.020212010267809388e-01
5.360000000000000320e+00 4.997500705202047033e-01
5.379999999999999893e+00 4.974935001702996407e-01
5.400000000000000355e+00 4.952513492655226113e-01
5.419999999999999929e+00 4.930234854685202062e-01
5.440000000000000391e+00 4.908097720455594781e-01
5.459999999999999964e+00 4.886100802575995550e-01
5.480000000000000426e+00 4.864242772110403124e-01
5.500000000000000000e+00 4.842522376291616970e-01
5.520000000000000462e+00 4.820938323266926728e-01
5.540000000000000036e+00 4.799489393589385089e-01
5.560000000000000497e+00 4.778174331227590388e-01
5.580000000000000071e+00 4.756991948807607340e-01
5.600000000000000533e+00 4.735941024910574892e-01
5.620000000000000107e+00 4.715020403039910102e-01
5.639999999999999680e+00 4.694228895231346566e-01
5.660000000000000142e+00 4.673565374720638488e-01
5.679999999999999716e+00 4.653028685888444538e-01
5.700000000000000178e+00 4.632617730604539075e-01
5.719999999999999751e+00 4.612331384531000444e-01
5.740000000000000213e+00 4.592168577119368211e-01
5.759999999999999787e+00 4.572128214293504911e-01
5.780000000000000249e+00 4.552209252076800938e-01
5.799999999999999822e+00 4.532410625677178451e-01
5.820000000000000284e+00 4.512731316722000119e-01
5.839999999999999858e+00 4.493170288765407361e-01
5.860000000000000320e+00 4.473726548109160928e-01
5.879999999999999893e+00 4.454399085754006671e-01
5.900000000000000355e+00 4.435186931784863562e-01
5.919999999999999929e+00 4.416089103785753034e-01
5.940000000000000391e+00 4.397104654768356768e-01
5.959999999999999964e+00 4.378232628071418997e-01
5.980000000000000426e+00 4.359472098811913443e-01
6.000000000000000000e+00 4.340822135287882855e-01
6.020000000000000462e+00 4.322281833931851946e-01
6.040000000000000036e+00 4.303850287237380168e-01
6.060000000000000497e+00 4.285526612194702212e-01
6.080000000000000071e+00 4.267309924759394857e-01
6.100000000000000533e+00 4.249199361750388704e-01
6.120000000000000107e+00 4.231194061880637070e-01
6.140000000000000568e+00 4.213293181097987339e-01
6.160000000000000142e+00 4.195495880195779237e-01
6.179999999999999716e+00 4.177801333577164655e-01
6.200000000000000178e+00 4.160208723465340652e-01
6.219999999999999751e+00 4.142717242071898842e-01
6.240000000000000213e+00 4.125326092424562718e-01
6.259999999999999787e+00 4.108034483920431357e-01
6.280000000000000249e+00 4.090841639790616102e-01
6.299999999999999822e+00 4.073746786019263322e-01
6.320000000000000284e+00 4.056749165462870677e-01
6.339999999999999858e+00 4.039848020115922034e-01
6.360000000000000320e+00 4.023042611904388832e-01
6.379999999999999893e+00 4.006332198278922396e-01
6.400000000000000355e+00 3.989716059700301187e-01
6.419999999999999929e+00 3.973193468540924256e-01
6.440000000000000391e+00 3.956763723281937484e-01
6.459999999999999964e+00 3.940426110703843521e-01
6.480000000000000426e+00 3.924179946813193265e-01
6.500000000000000000e+00 3.908024532302915577e-01
6.520000000000000462e+00 3.891959200228597426e-01
6.540000000000000036e+00 3.875983264718990684e-01
6.560000000000000497e+00 3.860096075420213491e-01
6.580000000000000071e+00 3.844296959436655503e-01
6.600000000000000533e+00 3.828585282563569669e-01
6.620000000000000107e+00 3.812960384438390804e-01
6.640000000000000568e+00 3.797421646580507737e-01
6.660000000000000142e+00 3.781968420732692571e-01
6.679999999999999716e+00 3.766600103729175197e-01
6.700000000000000178e+00 3.751316059006659653e-01
6.719999999999999751e+00 3.736115698320031653e-01
6.740000000000000213e+00 3.720998396402113162e-01
6.759999999999999787e+00 3.705963579548704478e-01
6.780000000000000249e+00 3.691010633405875652e-01
6.799999999999999822e+00 3.676138998444583583e-01
6.820000000000000284e+00 3.661348070853647219e-01
6.839999999999999858e+00 3.646637304926748091e-01
6.860000000000000320e+00 3.632006107038836529e-01
6.879999999999999893e+00 3.617453944966622648e-01
6.900000000000000355e+00 3.602980234925919345e-01
6.919999999999999929e+00 3.588584457849163245e-01
6.940000000000000391e+00 3.574266039460481936e-01
6.959999999999999964e+00 3.560024473532487632e-01
6.980000000000000426e+00 3.545859194975436446e-01
7.000000000000000000e+00 3.531769710098018877e-01
7.020000000000000462e+00 3.517755462686230628e-01
7.040000000000000036e+00 3.503815971291607267e-01
7.060000000000000497e+00 3.489950688274923718e-01
7.080000000000000071e+00 3.476159144147836222e-01
7.100000000000000533e+00 3.462440799555899784e-01
7.120000000000000107e+00 3.448795196698326571e-01
7.140000000000000568e+00 3.435221804223962394e-01
7.160000000000000142e+00 3.421720175756710614e-01
7.179999999999999716e+00 3.408289787677451499e-01
7.200000000000000178e+00 3.394930204781269056e-01
7.219999999999999751e+00 3.381640910917529386e-01
7.240000000000000213e+00 3.368421481808041018e-01
7.259999999999999787e+00 3.355271408516641851e-01
7.280000000000000249e+00 3.342190277456022485e-01
7.299999999999999822e+00 3.329177586657435239e-01
7.320000000000000284e+00 3.316232932997005278e-01
7.339999999999999858e+00 3.303355821235287038e-01
7.360000000000000320e+00 3.290545858492459064e-01
7.379999999999999893e+00 3.277802556026492842e-01
7.400000000000000355e+00 3.265125530990000691e-01
7.419999999999999929e+00 3.252514300914796652e-01
7.440000000000000391e+00 3.239968492781789000e-01
7.459999999999999964e+00 3.227487630178761391e-01
7.480000000000000426e+00 3.215071349718000016e-01
7.500000000000000000e+00 3.202719180833132895e-01
7.520000000000000462e+00 3.190430769577831671e-01
7.540000000000000036e+00 3.178205651026620449e-01
7.560000000000000497e+00 3.166043480491352868e-01
7.580000000000000071e+00 3.153943798489594608e-01
7.600000000000000533e+00 3.141906269414607156e-01
7.620000000000000107e+00 3.129930439033891676e-01
7.640000000000000568e+00 3.118015980651672181e-01
7.660000000000000142e+00 3.106162445098993863e-01
7.679999999999999716e+00 3.094369514426569823e-01
7.700000000000000178e+00 3.082636744346703428e-01
7.719999999999999751e+00 3.070963825498055355e-01
7.740000000000000213e+00 3.059350318298264537e-01
7.759999999999999787e+00 3.047795921821028764e-01
7.780000000000000249e+00 3.036300201017061995e-01
7.799999999999999822e+00 3.024862863247619327e-01
7.820000000000000284e+00 3.013483477830242174e-01
7.839999999999999858e+00 3.002161760271578883e-01
7.860000000000000320e+00 2.990897284092923769e-01
7.879999999999999893e+00 2.979689772809298032e-01
