# Electrodo circular de radio 6 mm y espesor 710.0 um.
# Volumen de simulacion (convencion z,y,x):
# N: 1024 x 1024 x 1024 | voxelSize:  0.02mm x 0.02mm x 0.02mm | FOV:  20.48mm x 20.48mm x 20.48mm
# 
# z [mm]		 delta[ppm]
0.000000000000000000e+00 2.384970599648424283e+00
2.000000000000000042e-02 2.382482517018804646e+00
4.000000000000000083e-02 2.379918737171467402e+00
5.999999999999999778e-02 2.377279708362503907e+00
8.000000000000000167e-02 2.374565871061961264e+00
1.000000000000000056e-01 2.371777675012081144e+00
1.199999999999999956e-01 2.368915577976883569e+00
1.400000000000000133e-01 2.365980050613029739e+00
1.600000000000000033e-01 2.362971572125204478e+00
1.799999999999999933e-01 2.359890634168714030e+00
2.000000000000000111e-01 2.356737736719820564e+00
2.200000000000000011e-01 2.353513391947671618e+00
2.399999999999999911e-01 2.350218119858015431e+00
2.600000000000000089e-01 2.346852452346245510e+00
2.800000000000000266e-01 2.343416928678992761e+00
2.999999999999999889e-01 2.339912099719363869e+00
3.200000000000000067e-01 2.336338523204889661e+00
3.400000000000000244e-01 2.332696768152172417e+00
3.599999999999999867e-01 2.328987409960757482e+00
3.800000000000000044e-01 2.325211034991750747e+00
4.000000000000000222e-01 2.321368235481038322e+00
4.199999999999999845e-01 2.317459614292813441e+00
4.400000000000000022e-01 2.313485779658898345e+00
4.600000000000000200e-01 2.309447350103715380e+00
4.799999999999999822e-01 2.305344949001950194e+00
5.000000000000000000e-01 2.301179209673944293e+00
5.200000000000000178e-01 2.296950769773511425e+00
5.400000000000000355e-01 2.292660276550645193e+00
5.600000000000000533e-01 2.288308381065956798e+00
5.799999999999999600e-01 2.283895743618791663e+00
5.999999999999999778e-01 2.279423027797621959e+00
6.199999999999999956e-01 2.274890906070484053e+00
6.400000000000000133e-01 2.270300053670194274e+00
6.600000000000000311e-01 2.265651154344646478e+00
6.800000000000000488e-01 2.260944894084856216e+00
7.000000000000000666e-01 2.256181967031866797e+00
7.199999999999999734e-01 2.251363069048042842e+00
7.399999999999999911e-01 2.246488903777745350e+00
7.600000000000000089e-01 2.241560176069027133e+00
7.800000000000000266e-01 2.236577598184676940e+00
8.000000000000000444e-01 2.231541883075808030e+00
8.200000000000000622e-01 2.226453750740081894e+00
8.399999999999999689e-01 2.221313921353849974e+00
8.599999999999999867e-01 2.216123121773960758e+00
8.800000000000000044e-01 2.210882078530733708e+00
9.000000000000000222e-01 2.205591524469852516e+00
9.200000000000000400e-01 2.200252191612523500e+00
9.400000000000000577e-01 2.194864817933668277e+00
9.599999999999999645e-01 2.189430140092108790e+00
9.799999999999999822e-01 2.183948900341306398e+00
1.000000000000000000e+00 2.178421839135763705e+00
1.020000000000000018e+00 2.172849702170267072e+00
1.040000000000000036e+00 2.167233232865831916e+00
1.060000000000000053e+00 2.161573179533469613e+00
1.080000000000000071e+00 2.155870287745715874e+00
1.100000000000000089e+00 2.150125307620672555e+00
1.120000000000000107e+00 2.144338986082862331e+00
1.140000000000000124e+00 2.138512074263285712e+00
1.159999999999999920e+00 2.132645319655600780e+00
1.179999999999999938e+00 2.126739473627727861e+00
1.199999999999999956e+00 2.120795283477426629e+00
1.219999999999999973e+00 2.114813500050960027e+00
1.239999999999999991e+00 2.108794869704022190e+00
1.260000000000000009e+00 2.102740142022809344e+00
1.280000000000000027e+00 2.096650061694640854e+00
1.300000000000000044e+00 2.090525376326700879e+00
1.320000000000000062e+00 2.084366828232355751e+00
1.340000000000000080e+00 2.078175162342668525e+00
1.360000000000000098e+00 2.071951117913008122e+00
1.380000000000000115e+00 2.065695436522404282e+00
1.400000000000000133e+00 2.059408853706444109e+00
1.419999999999999929e+00 2.053092107039375946e+00
1.439999999999999947e+00 2.046745927698122802e+00
1.459999999999999964e+00 2.040371048621967720e+00
1.479999999999999982e+00 2.033968196013737018e+00
1.500000000000000000e+00 2.027538097571768283e+00
1.520000000000000018e+00 2.021081473933303396e+00
1.540000000000000036e+00 2.014599046973346574e+00
1.560000000000000053e+00 2.008091531196374735e+00
1.580000000000000071e+00 2.001559642096616631e+00
1.600000000000000089e+00 1.995004087503271517e+00
1.620000000000000107e+00 1.988425575996633832e+00
1.640000000000000124e+00 1.981824808213008327e+00
1.660000000000000142e+00 1.975202485310985745e+00
1.679999999999999938e+00 1.968559300241424115e+00
1.699999999999999956e+00 1.961895946258134682e+00
1.719999999999999973e+00 1.955213108159161939e+00
1.739999999999999991e+00 1.948511470836004511e+00
1.760000000000000009e+00 1.941791710491744594e+00
1.780000000000000027e+00 1.935054503222847222e+00
1.800000000000000044e+00 1.928300516220466942e+00
1.820000000000000062e+00 1.921530416378767647e+00
1.840000000000000080e+00 1.914744861485113692e+00
1.860000000000000098e+00 1.907944508848782750e+00
1.880000000000000115e+00 1.901130006486428270e+00
1.900000000000000133e+00 1.894302001764988530e+00
1.919999999999999929e+00 1.887461132588235557e+00
1.939999999999999947e+00 1.880608036047607623e+00
1.959999999999999964e+00 1.873743339616333436e+00
1.979999999999999982e+00 1.866867669801778540e+00
2.000000000000000000e+00 1.859981643353137315e+00
2.020000000000000018e+00 1.853085875908866420e+00
2.040000000000000036e+00 1.846180973224482935e+00
2.060000000000000053e+00 1.839267539808557839e+00
2.080000000000000071e+00 1.832346170176727185e+00
2.100000000000000089e+00 1.825417457469655114e+00
2.120000000000000107e+00 1.818481984739916069e+00
2.140000000000000124e+00 1.811540333545238024e+00
2.160000000000000142e+00 1.804593075274484537e+00
2.180000000000000160e+00 1.797640779709456904e+00
2.200000000000000178e+00 1.790684006396705552e+00
2.220000000000000195e+00 1.783723313171075908e+00
2.240000000000000213e+00 1.776759247579712930e+00
2.260000000000000231e+00 1.769792355360480851e+00
2.280000000000000249e+00 1.762823171924974286e+00
2.300000000000000266e+00 1.755852230784872736e+00
2.319999999999999840e+00 1.748880055100440423e+00
2.339999999999999858e+00 1.741907166047823141e+00
2.359999999999999876e+00 1.734934074439940188e+00
2.379999999999999893e+00 1.727961289027663216e+00
2.399999999999999911e+00 1.720989308199686096e+00
2.419999999999999929e+00 1.714018628210481010e+00
2.439999999999999947e+00 1.707049734966148646e+00
2.459999999999999964e+00 1.700083112171955735e+00
2.479999999999999982e+00 1.693119233210879981e+00
2.500000000000000000e+00 1.686158569203519253e+00
2.520000000000000018e+00 1.679201580986391162e+00
2.540000000000000036e+00 1.672248727076943275e+00
2.560000000000000053e+00 1.665300455758423004e+00
2.580000000000000071e+00 1.658357212942653369e+00
2.600000000000000089e+00 1.651419434368643024e+00
2.620000000000000107e+00 1.644487553355746146e+00
2.640000000000000124e+00 1.637561993122935711e+00
2.660000000000000142e+00 1.630643174424916797e+00
2.680000000000000160e+00 1.623731507999321089e+00
2.700000000000000178e+00 1.616827402078296894e+00
2.720000000000000195e+00 1.609931254970633274e+00
2.740000000000000213e+00 1.603043462441322786e+00
2.760000000000000231e+00 1.596164410435958025e+00
2.780000000000000249e+00 1.589294482320692259e+00
2.800000000000000266e+00 1.582434051756020033e+00
2.819999999999999840e+00 1.575583489789556868e+00
2.839999999999999858e+00 1.568743157886608897e+00
2.859999999999999876e+00 1.561913414868119965e+00
2.879999999999999893e+00 1.555094610105257180e+00
2.899999999999999911e+00 1.548287090294838242e+00
2.919999999999999929e+00 1.541491192825446888e+00
2.939999999999999947e+00 1.534707252382585985e+00
2.959999999999999964e+00 1.527935594493643912e+00
2.979999999999999982e+00 1.521176541955040484e+00
3.000000000000000000e+00 1.514430408563597119e+00
3.020000000000000018e+00 1.507697505357882495e+00
3.040000000000000036e+00 1.500978134543392573e+00
3.060000000000000053e+00 1.494272595540258042e+00
3.080000000000000071e+00 1.487581179109904950e+00
3.100000000000000089e+00 1.480904173201244012e+00
3.120000000000000107e+00 1.474241857286299195e+00
3.140000000000000124e+00 1.467594507996993869e+00
3.160000000000000142e+00 1.460962393677482929e+00
3.180000000000000160e+00 1.454345779803579930e+00
3.200000000000000178e+00 1.447744923759378688e+00
3.220000000000000195e+00 1.441160080031385737e+00
3.240000000000000213e+00 1.434591495217201196e+00
3.260000000000000231e+00 1.428039412986361612e+00
3.280000000000000249e+00 1.421504069328772824e+00
3.300000000000000266e+00 1.414985697274219190e+00
3.320000000000000284e+00 1.408484522388425031e+00
3.339999999999999858e+00 1.402000767243172019e+00
3.359999999999999876e+00 1.395534647167736786e+00
3.379999999999999893e+00 1.389086374461540485e+00
3.399999999999999911e+00 1.382656154408914650e+00
3.419999999999999929e+00 1.376244189226142778e+00
3.439999999999999947e+00 1.369850674347386832e+00
3.459999999999999964e+00 1.363475802098015111e+00
3.479999999999999982e+00 1.357119758259674791e+00
3.500000000000000000e+00 1.350782725461720624e+00
3.520000000000000018e+00 1.344464880033364063e+00
3.540000000000000036e+00 1.338166395105023332e+00
3.560000000000000053e+00 1.331887437755603365e+00
3.580000000000000071e+00 1.325628171815520728e+00
3.600000000000000089e+00 1.319388755317142614e+00
3.620000000000000107e+00 1.313169342991238553e+00
3.640000000000000124e+00 1.306970084028684420e+00
3.660000000000000142e+00 1.300791124262086207e+00
3.680000000000000160e+00 1.294632604246823471e+00
3.700000000000000178e+00 1.288494661119507612e+00
3.720000000000000195e+00 1.282377427006600845e+00
3.740000000000000213e+00 1.276281030551387641e+00
3.760000000000000231e+00 1.270205595658269404e+00
3.780000000000000249e+00 1.264151242679921516e+00
3.800000000000000266e+00 1.258118087505533778e+00
3.820000000000000284e+00 1.252106242399756431e+00
3.839999999999999858e+00 1.246115815443112007e+00
3.859999999999999876e+00 1.240146911014321285e+00
3.879999999999999893e+00 1.234199629591214542e+00
3.899999999999999911e+00 1.228274067868000419e+00
3.919999999999999929e+00 1.222370318924969945e+00
3.939999999999999947e+00 1.216488471972246410e+00
3.959999999999999964e+00 1.210628612896673229e+00
3.979999999999999982e+00 1.204790823623562490e+00
4.000000000000000000e+00 1.198975183049133086e+00
4.020000000000000462e+00 1.193181766011726985e+00
4.040000000000000036e+00 1.187410644618252187e+00
4.060000000000000497e+00 1.181661886816361529e+00
4.080000000000000071e+00 1.175935558123296198e+00
4.099999999999999645e+00 1.170231719790478797e+00
4.120000000000000107e+00 1.164550430943269710e+00
4.139999999999999680e+00 1.158891746329372641e+00
4.160000000000000142e+00 1.153255718878031466e+00
4.179999999999999716e+00 1.147642397023613814e+00
4.200000000000000178e+00 1.142051827692809551e+00
4.219999999999999751e+00 1.136484053194781740e+00
4.240000000000000213e+00 1.130939114644929022e+00
4.259999999999999787e+00 1.125417048412916898e+00
4.280000000000000249e+00 1.119917889991640880e+00
4.299999999999999822e+00 1.114441669994464146e+00
4.320000000000000284e+00 1.108988418478018101e+00
4.339999999999999858e+00 1.103558160479885863e+00
4.360000000000000320e+00 1.098150920803986130e+00
4.379999999999999893e+00 1.092766719089943050e+00
4.400000000000000355e+00 1.087405575069727126e+00
4.419999999999999929e+00 1.082067503159961586e+00
4.440000000000000391e+00 1.076752518198570874e+00
4.459999999999999964e+00 1.071460629551228116e+00
4.480000000000000426e+00 1.066191847336800169e+00
4.500000000000000000e+00 1.060946176039038624e+00
4.520000000000000462e+00 1.055723621229700537e+00
4.540000000000000036e+00 1.050524182676639828e+00
4.560000000000000497e+00 1.045347861573397097e+00
4.580000000000000071e+00 1.040194653134794533e+00
4.600000000000000533e+00 1.035064554341925680e+00
4.620000000000000107e+00 1.029957556016311893e+00
4.639999999999999680e+00 1.024873651089212911e+00
4.660000000000000142e+00 1.019812826145365392e+00
4.679999999999999716e+00 1.014775070225596654e+00
4.700000000000000178e+00 1.009760365831158468e+00
4.719999999999999751e+00 1.004768698268635019e+00
4.740000000000000213e+00 9.998000461058106358e-01
4.759999999999999787e+00 9.948543910679514823e-01
4.780000000000000249e+00 9.899317079361386051e-01
4.799999999999999822e+00 9.850319750039850941e-01
4.820000000000000284e+00 9.801551634093239596e-01
4.839999999999999858e+00 9.753012481604943495e-01
4.860000000000000320e+00 9.704701968922627708e-01
4.879999999999999893e+00 9.656619814707974037e-01
4.900000000000000355e+00 9.608765661646455625e-01
4.919999999999999929e+00 9.561139198376338300e-01
4.940000000000000391e+00 9.513740035256671446e-01
4.959999999999999964e+00 9.466567832267775984e-01
4.980000000000000426e+00 9.419622168744933299e-01
5.000000000000000000e+00 9.372902677343361022e-01
5.020000000000000462e+00 9.326408907644667678e-01
5.040000000000000036e+00 9.280140466279359623e-01
5.060000000000000497e+00 9.234096874312626158e-01
5.080000000000000071e+00 9.188277713618276943e-01
5.100000000000000533e+00 9.142682477950153652e-01
5.120000000000000107e+00 9.097310725661396091e-01
5.139999999999999680e+00 9.052161924367119195e-01
5.160000000000000142e+00 9.007235610103920820e-01
5.179999999999999716e+00 8.962531225489184239e-01
5.200000000000000178e+00 8.918048285415611787e-01
5.219999999999999751e+00 8.873786208611996740e-01
5.240000000000000213e+00 8.829744489968575083e-01
5.259999999999999787e+00 8.785922525403603300e-01
5.280000000000000249e+00 8.742319790915353828e-01
5.299999999999999822e+00 8.698935660658584368e-01
5.320000000000000284e+00 8.655769592819618774e-01
5.339999999999999858e+00 8.612820940806296122e-01
5.360000000000000320e+00 8.570089146043049499e-01
5.379999999999999893e+00 8.527573542176979382e-01
5.400000000000000355e+00 8.485273554890871983e-01
5.419999999999999929e+00 8.443188499027842742e-01
5.440000000000000391e+00 8.401317785520051595e-01
5.459999999999999964e+00 8.359660711333892769e-01
5.480000000000000426e+00 8.318216673613063605e-01
5.500000000000000000e+00 8.276984952345839419e-01
5.520000000000000462e+00 8.235964931821377899e-01
5.540000000000000036e+00 8.195155875919729604e-01
5.560000000000000497e+00 8.154557156981563359e-01
5.580000000000000071e+00 8.114168023621084469e-01
5.600000000000000533e+00 8.073987837108976828e-01
5.620000000000000107e+00 8.034015831608312119e-01
5.639999999999999680e+00 7.994251358171575728e-01
5.660000000000000142e+00 7.954693637298616560e-01
5.679999999999999716e+00 7.915342010649157878e-01
5.700000000000000178e+00 7.876195685821062442e-01
5.719999999999999751e+00 7.837253995880772983e-01
5.740000000000000213e+00 7.798516136259916465e-01
5.759999999999999787e+00 7.759981432205786955e-01
5.780000000000000249e+00 7.721649067693667767e-01
5.799999999999999822e+00 7.683518360901079314e-01
5.820000000000000284e+00 7.645588485032407400e-01
5.839999999999999858e+00 7.607858751920404394e-01
5.860000000000000320e+00 7.570328324659203467e-01
5.879999999999999893e+00 7.532996509438113497e-01
5.900000000000000355e+00 7.495862459878219752e-01
5.919999999999999929e+00 7.458925477203367516e-01
5.940000000000000391e+00 7.422184706175151137e-01
5.959999999999999964e+00 7.385639443707312513e-01
5.980000000000000426e+00 7.349288826292973420e-01
6.000000000000000000e+00 7.313132147168928121e-01
6.020000000000000462e+00 7.277168535128318849e-01
6.040000000000000036e+00 7.241397280342418696e-01
6.060000000000000497e+00 7.205817504451478284e-01
6.080000000000000071e+00 7.170428495151646153e-01
6.100000000000000533e+00 7.135229367455611094e-01
6.120000000000000107e+00 7.100219407154235718e-01
6.140000000000000568e+00 7.065397723137792907e-01
6.160000000000000142e+00 7.030763599841410860e-01
6.179999999999999716e+00 6.996316140517481186e-01
6.200000000000000178e+00 6.962054628775586895e-01
6.219999999999999751e+00 6.927978162695275222e-01
6.240000000000000213e+00 6.894086025571605214e-01
6.259999999999999787e+00 6.860377310757012070e-01
6.280000000000000249e+00 6.826851301724511378e-01
6.299999999999999822e+00 6.793507087526516885e-01
6.320000000000000284e+00 6.760343952288464520e-01
6.339999999999999858e+00 6.727360981171494059e-01
6.360000000000000320e+00 6.694557459410285238e-01
6.379999999999999893e+00 6.661932468665955343e-01
6.400000000000000355e+00 6.629485295722263860e-01
6.419999999999999929e+00 6.597215019113916723e-01
6.440000000000000391e+00 6.565120927596990175e-01
6.459999999999999964e+00 6.533202096937019698e-01
6.480000000000000426e+00 6.501457818269461564e-01
6.500000000000000000e+00 6.469887164931235057e-01
6.520000000000000462e+00 6.438489430828658877e-01
6.540000000000000036e+00 6.407263687194992841e-01
6.560000000000000497e+00 6.376209231083664886e-01
6.580000000000000071e+00 6.345325131933565732e-01
6.600000000000000533e+00 6.314610690306829976e-01
6.620000000000000107e+00 6.284064974142501425e-01
6.640000000000000568e+00 6.253687287858656907e-01
6.660000000000000142e+00 6.223476698174285060e-01
6.679999999999999716e+00 6.193432513696754960e-01
6.700000000000000178e+00 6.163553800190904042e-01
6.719999999999999751e+00 6.133839870773416525e-01
6.740000000000000213e+00 6.104289790506858271e-01
6.759999999999999787e+00 6.074902877324196426e-01
6.780000000000000249e+00 6.045678195824669698e-01
6.799999999999999822e+00 6.016615069051910458e-01
6.820000000000000284e+00 5.987712561367495301e-01
6.839999999999999858e+00 5.958970001207941625e-01
6.860000000000000320e+00 5.930386452910704209e-01
6.879999999999999893e+00 5.901961250575586959e-01
6.900000000000000355e+00 5.873693458717004212e-01
6.919999999999999929e+00 5.845582417357065852e-01
6.940000000000000391e+00 5.817627191376847362e-01
6.959999999999999964e+00 5.789827126968649651e-01
6.980000000000000426e+00 5.762181289558215846e-01
7.000000000000000000e+00 5.734689031745430210e-01
7.020000000000000462e+00 5.707349419667923085e-01
7.040000000000000036e+00 5.680161812560230450e-01
7.060000000000000497e+00 5.653125277428152629e-01
7.080000000000000071e+00 5.626239180357933689e-01
7.100000000000000533e+00 5.599502589369889094e-01
7.120000000000000107e+00 5.572914877609476125e-01
7.140000000000000568e+00 5.546475114247476634e-01
7.160000000000000142e+00 5.520182679686845839e-01
7.179999999999999716e+00 5.494036644375476230e-01
7.200000000000000178e+00 5.468036396163111768e-01
7.219999999999999751e+00 5.442181006891779749e-01
7.240000000000000213e+00 5.416469872038722766e-01
7.259999999999999787e+00 5.390902064948381867e-01
7.280000000000000249e+00 5.365476988897909250e-01
7.299999999999999822e+00 5.340193718833339265e-01
7.320000000000000284e+00 5.315051665996172181e-01
7.339999999999999858e+00 5.290049907025237141e-01
7.360000000000000320e+00 5.265187861283087134e-01
7.379999999999999893e+00 5.240464607183974444e-01
7.400000000000000355e+00 5.215879572360775374e-01
7.419999999999999929e+00 5.191431837078317457e-01
7.440000000000000391e+00 5.167120837382056520e-01
7.459999999999999964e+00 5.142945655454502774e-01
7.480000000000000426e+00 5.118905735889026642e-01
7.500000000000000000e+00 5.095000162846049507e-01
7.520000000000000462e+00 5.071228389595562325e-01
7.540000000000000036e+00 5.047589502328774236e-01
7.560000000000000497e+00 5.024082963114685496e-01
7.580000000000000071e+00 5.000707860221512702e-01
7.600000000000000533e+00 4.977463664633577922e-01
7.620000000000000107e+00 4.954349466735613605e-01
7.640000000000000568e+00 4.931364746537778010e-01
7.660000000000000142e+00 4.908508596574590599e-01
7.679999999999999716e+00 4.885780505986953570e-01
7.700000000000000178e+00 4.863179569486177911e-01
7.719999999999999751e+00 4.840705285443333561e-01
7.740000000000000213e+00 4.818356750767959218e-01
7.759999999999999787e+00 4.796133473155685389e-01
7.780000000000000249e+00 4.774034551729629539e-01
7.799999999999999822e+00 4.752059503599396773e-01
7.820000000000000284e+00 4.730207430111956213e-01
7.839999999999999858e+00 4.708477857875546513e-01
7.860000000000000320e+00 4.686869890465699129e-01
7.879999999999999893e+00 4.665383064069439367e-01
