# Electrodo circular de radio 6 mm y espesor 710.0 um.
# Volumen de simulacion (convencion z,y,x):
# N: 1024 x 1024 x 1024 | voxelSize:  0.02mm x 0.02mm x 0.02mm | FOV:  20.48mm x 20.48mm x 20.48mm
# 
# z [mm]		 delta[ppm]
0.000000000000000000e+00 2.407641387889442708e+00
2.000000000000000042e-02 2.405032064863879881e+00
4.000000000000000083e-02 2.402343715077846831e+00
5.999999999999999778e-02 2.399576785818570368e+00
8.000000000000000167e-02 2.396731756773721411e+00
1.000000000000000056e-01 2.393809122451007187e+00
1.199999999999999956e-01 2.390809390826915681e+00
1.400000000000000133e-01 2.387733082723139333e+00
1.600000000000000033e-01 2.384580729417034917e+00
1.799999999999999933e-01 2.381352875280431824e+00
2.000000000000000111e-01 2.378050074102368683e+00
2.200000000000000011e-01 2.374672892573330252e+00
2.399999999999999911e-01 2.371221906144103553e+00
2.600000000000000089e-01 2.367697702876466526e+00
2.800000000000000266e-01 2.364100878989326748e+00
2.999999999999999889e-01 2.360432042993251489e+00
3.200000000000000067e-01 2.356691810951071719e+00
3.400000000000000244e-01 2.352880810859935945e+00
3.599999999999999867e-01 2.348999677678446307e+00
3.800000000000000044e-01 2.345049057933120906e+00
4.000000000000000222e-01 2.341029604510531659e+00
4.199999999999999845e-01 2.336941981476048813e+00
4.400000000000000022e-01 2.332786858660168328e+00
4.600000000000000200e-01 2.328564916678474095e+00
4.799999999999999822e-01 2.324276841308118513e+00
5.000000000000000000e-01 2.319923328702669263e+00
5.200000000000000178e-01 2.315505079578181746e+00
5.400000000000000355e-01 2.311022804616093662e+00
5.600000000000000533e-01 2.306477218455830869e+00
5.799999999999999600e-01 2.301869045281341286e+00
5.999999999999999778e-01 2.297199012634666193e+00
6.199999999999999956e-01 2.292467857180980673e+00
6.400000000000000133e-01 2.287676318341491211e+00
6.600000000000000311e-01 2.282825144233197712e+00
6.800000000000000488e-01 2.277915085132752981e+00
7.000000000000000666e-01 2.272946899586499647e+00
7.199999999999999734e-01 2.267921347704911827e+00
7.399999999999999911e-01 2.262839197439316941e+00
7.600000000000000089e-01 2.257701217716786779e+00
7.800000000000000266e-01 2.252508184879375985e+00
8.000000000000000444e-01 2.247260875660144208e+00
8.200000000000000622e-01 2.241960073781255058e+00
8.399999999999999689e-01 2.236606562779885898e+00
8.599999999999999867e-01 2.231201132761078565e+00
8.800000000000000044e-01 2.225744573075065347e+00
9.000000000000000222e-01 2.220237679221050087e+00
9.200000000000000400e-01 2.214681245383984809e+00
9.400000000000000577e-01 2.209076071485124526e+00
9.599999999999999645e-01 2.203422955580416343e+00
9.799999999999999822e-01 2.197722701053852923e+00
1.000000000000000000e+00 2.191976108885026697e+00
1.020000000000000018e+00 2.186183984980944572e+00
1.040000000000000036e+00 2.180347132315494818e+00
1.060000000000000053e+00 2.174466358395561461e+00
1.080000000000000071e+00 2.168542467279559460e+00
1.100000000000000089e+00 2.162576267173373701e+00
1.120000000000000107e+00 2.156568562331192762e+00
1.140000000000000124e+00 2.150520160776851597e+00
1.159999999999999920e+00 2.144431866093909012e+00
1.179999999999999938e+00 2.138304485267723543e+00
1.199999999999999956e+00 2.132138820368391308e+00
1.219999999999999973e+00 2.125935676508930783e+00
1.239999999999999991e+00 2.119695853427834287e+00
1.260000000000000009e+00 2.113420153558513093e+00
1.280000000000000027e+00 2.107109373515422046e+00
1.300000000000000044e+00 2.100764312269886691e+00
1.320000000000000062e+00 2.094385762546485452e+00
1.340000000000000080e+00 2.087974519100184612e+00
1.360000000000000098e+00 2.081531370027230210e+00
1.380000000000000115e+00 2.075057105138515379e+00
1.400000000000000133e+00 2.068552507191566914e+00
1.419999999999999929e+00 2.062018360354886504e+00
1.439999999999999947e+00 2.055455441365553693e+00
1.459999999999999964e+00 2.048864528079227032e+00
1.479999999999999982e+00 2.042246390559927516e+00
1.500000000000000000e+00 2.035601799710239579e+00
1.520000000000000018e+00 2.028931518298040526e+00
1.540000000000000036e+00 2.022236309661350706e+00
1.560000000000000053e+00 2.015516928678579234e+00
1.580000000000000071e+00 2.008774130542383851e+00
1.600000000000000089e+00 2.002008661678368995e+00
1.620000000000000107e+00 1.995221268582242580e+00
1.640000000000000124e+00 1.988412688693541375e+00
1.660000000000000142e+00 1.981583659290223842e+00
1.679999999999999938e+00 1.974734908322579807e+00
1.699999999999999956e+00 1.967867163359351634e+00
1.719999999999999973e+00 1.960981142388424026e+00
1.739999999999999991e+00 1.954077562808425261e+00
1.760000000000000009e+00 1.947157132201547292e+00
1.780000000000000027e+00 1.940220557364521703e+00
1.800000000000000044e+00 1.933268535060200577e+00
1.820000000000000062e+00 1.926301761081693042e+00
1.840000000000000080e+00 1.919320920988234924e+00
1.860000000000000098e+00 1.912326699196190916e+00
1.880000000000000115e+00 1.905319769705886346e+00
1.900000000000000133e+00 1.898300805213116060e+00
1.919999999999999929e+00 1.891270467832593116e+00
1.939999999999999947e+00 1.884229418223529962e+00
1.959999999999999964e+00 1.877178306316444223e+00
1.979999999999999982e+00 1.870117780446247879e+00
2.000000000000000000e+00 1.863048478088251914e+00
2.020000000000000018e+00 1.855971034992179858e+00
2.040000000000000036e+00 1.848886075934145445e+00
2.060000000000000053e+00 1.841794223844900991e+00
2.080000000000000071e+00 1.834696090583761041e+00
2.100000000000000089e+00 1.827592286054348092e+00
2.120000000000000107e+00 1.820483409007326081e+00
2.140000000000000124e+00 1.813370056136797581e+00
2.160000000000000142e+00 1.806252812917968908e+00
2.180000000000000160e+00 1.799132262677314076e+00
2.200000000000000178e+00 1.792008977472100417e+00
2.220000000000000195e+00 1.784883527127361758e+00
2.240000000000000213e+00 1.777756470163528668e+00
2.260000000000000231e+00 1.770628362793204236e+00
2.280000000000000249e+00 1.763499749903896463e+00
2.300000000000000266e+00 1.756371174007501867e+00
2.319999999999999840e+00 1.749243166284536910e+00
2.339999999999999858e+00 1.742116255479193132e+00
2.359999999999999876e+00 1.734990959012140621e+00
2.379999999999999893e+00 1.727867791813955778e+00
2.399999999999999911e+00 1.720747257512997619e+00
2.419999999999999929e+00 1.713629857199973516e+00
2.439999999999999947e+00 1.706516080698042170e+00
2.459999999999999964e+00 1.699406415251194735e+00
2.479999999999999982e+00 1.692301336883228036e+00
2.500000000000000000e+00 1.685201319002593401e+00
2.520000000000000018e+00 1.678106823857458574e+00
2.540000000000000036e+00 1.671018311049627503e+00
2.560000000000000053e+00 1.663936229092436658e+00
2.580000000000000071e+00 1.656861023826298185e+00
2.600000000000000089e+00 1.649793130086734116e+00
2.620000000000000107e+00 1.642732980014047328e+00
2.640000000000000124e+00 1.635680994838361935e+00
2.660000000000000142e+00 1.628637593075876300e+00
2.680000000000000160e+00 1.621603182438303259e+00
2.700000000000000178e+00 1.614578167908117035e+00
2.720000000000000195e+00 1.607562943779356379e+00
2.740000000000000213e+00 1.600557901604250599e+00
2.760000000000000231e+00 1.593563422372860083e+00
2.780000000000000249e+00 1.586579884323408018e+00
2.800000000000000266e+00 1.579607655267822430e+00
2.819999999999999840e+00 1.572647100258094843e+00
2.839999999999999858e+00 1.565698574065260473e+00
2.859999999999999876e+00 1.558762428694035140e+00
2.879999999999999893e+00 1.551839006022416534e+00
2.899999999999999911e+00 1.544928645156829816e+00
2.919999999999999929e+00 1.538031675239980300e+00
2.939999999999999947e+00 1.531148422638668904e+00
2.959999999999999964e+00 1.524279203927183080e+00
2.979999999999999982e+00 1.517424332899961037e+00
3.000000000000000000e+00 1.510584113738199674e+00
3.020000000000000018e+00 1.503758847839492763e+00
3.040000000000000036e+00 1.496948827175022423e+00
3.060000000000000053e+00 1.490154340928271370e+00
3.080000000000000071e+00 1.483375669050575940e+00
3.100000000000000089e+00 1.476613088700957643e+00
3.120000000000000107e+00 1.469866868007502658e+00
3.140000000000000124e+00 1.463137272300360836e+00
3.160000000000000142e+00 1.456424558086790499e+00
3.180000000000000160e+00 1.449728979069307533e+00
3.200000000000000178e+00 1.443050780341956774e+00
3.220000000000000195e+00 1.436390204185620911e+00
3.240000000000000213e+00 1.429747484493384846e+00
3.260000000000000231e+00 1.423122852334951283e+00
3.280000000000000249e+00 1.416516530618773029e+00
3.300000000000000266e+00 1.409928739417483090e+00
3.320000000000000284e+00 1.403359690874757870e+00
3.339999999999999858e+00 1.396809594283663136e+00
3.359999999999999876e+00 1.390278651245975938e+00
3.379999999999999893e+00 1.383767060495318502e+00
3.399999999999999911e+00 1.377275013316984875e+00
3.419999999999999929e+00 1.370802698107687290e+00
3.439999999999999947e+00 1.364350296063693291e+00
3.459999999999999964e+00 1.357917985469044186e+00
3.479999999999999982e+00 1.351505937660070877e+00
3.500000000000000000e+00 1.345114321033868743e+00
3.520000000000000018e+00 1.338743297297103174e+00
3.540000000000000036e+00 1.332393025186525692e+00
3.560000000000000053e+00 1.326063657010205121e+00
3.580000000000000071e+00 1.319755342071816440e+00
3.600000000000000089e+00 1.313468223512301636e+00
3.620000000000000107e+00 1.307202441429655915e+00
3.640000000000000124e+00 1.300958130029201909e+00
3.660000000000000142e+00 1.294735420430604078e+00
3.680000000000000160e+00 1.288534438134795401e+00
3.700000000000000178e+00 1.282355305509875532e+00
3.720000000000000195e+00 1.276198139582993329e+00
3.740000000000000213e+00 1.270063054196789665e+00
3.760000000000000231e+00 1.263950158134313329e+00
3.780000000000000249e+00 1.257859556937674705e+00
3.800000000000000266e+00 1.251791351374323513e+00
3.820000000000000284e+00 1.245745638909507402e+00
3.839999999999999858e+00 1.239722512522114739e+00
3.859999999999999876e+00 1.233722061822525751e+00
3.879999999999999893e+00 1.227744372226398095e+00
3.899999999999999911e+00 1.221789525709482405e+00
3.919999999999999929e+00 1.215857600347604928e+00
3.939999999999999947e+00 1.209948670699991791e+00
3.959999999999999964e+00 1.204062807723893958e+00
3.979999999999999982e+00 1.198200078777935662e+00
4.000000000000000000e+00 1.192360547919717684e+00
4.020000000000000462e+00 1.186544275520671654e+00
4.040000000000000036e+00 1.180751318955134188e+00
4.060000000000000497e+00 1.174981731818216968e+00
4.080000000000000071e+00 1.169235565014707934e+00
4.099999999999999645e+00 1.163512865571424415e+00
4.120000000000000107e+00 1.157813678134490987e+00
4.139999999999999680e+00 1.152138043367593845e+00
4.160000000000000142e+00 1.146485999866115879e+00
4.179999999999999716e+00 1.140857582132680959e+00
4.200000000000000178e+00 1.135252822916744231e+00
4.219999999999999751e+00 1.129671750758830306e+00
4.240000000000000213e+00 1.124114392764096193e+00
4.259999999999999787e+00 1.118580771706608079e+00
4.280000000000000249e+00 1.113070909245533313e+00
4.299999999999999822e+00 1.107584822580813810e+00
4.320000000000000284e+00 1.102122528120571765e+00
4.339999999999999858e+00 1.096684037679449997e+00
4.360000000000000320e+00 1.091269362605998605e+00
4.379999999999999893e+00 1.085878509514951684e+00
4.400000000000000355e+00 1.080511484883218021e+00
4.419999999999999929e+00 1.075168290307385144e+00
4.440000000000000391e+00 1.069848927577065734e+00
4.459999999999999964e+00 1.064553393448879115e+00
4.480000000000000426e+00 1.059281685205886836e+00
4.500000000000000000e+00 1.054033794939189805e+00
4.520000000000000462e+00 1.048809715602338377e+00
4.540000000000000036e+00 1.043609434791751722e+00
4.560000000000000497e+00 1.038432941304825663e+00
4.580000000000000071e+00 1.033280218410325801e+00
4.600000000000000533e+00 1.028151250919127957e+00
4.620000000000000107e+00 1.023046017935686391e+00
4.639999999999999680e+00 1.017964500450261323e+00
4.660000000000000142e+00 1.012906673562537829e+00
4.679999999999999716e+00 1.007872514604311265e+00
4.700000000000000178e+00 1.002861994826325320e+00
4.719999999999999751e+00 9.978750880603347584e-01
4.740000000000000213e+00 9.929117618601579487e-01
4.759999999999999787e+00 9.879719867121818933e-01
4.780000000000000249e+00 9.830557266216198853e-01
4.799999999999999822e+00 9.781629488804425288e-01
4.820000000000000284e+00 9.732936140897929800e-01
4.839999999999999858e+00 9.684476864944590035e-01
4.860000000000000320e+00 9.636251234323821580e-01
4.879999999999999893e+00 9.588258862447125441e-01
4.900000000000000355e+00 9.540499291433035545e-01
4.919999999999999929e+00 9.492972107055540620e-01
4.940000000000000391e+00 9.445676821507256182e-01
4.959999999999999964e+00 9.398612994287105504e-01
4.980000000000000426e+00 9.351780108959872884e-01
5.000000000000000000e+00 9.305177700075845104e-01
5.020000000000000462e+00 9.258805223834526421e-01
5.040000000000000036e+00 9.212662191128377920e-01
5.060000000000000497e+00 9.166748032018006143e-01
5.080000000000000071e+00 9.121062234993537743e-01
5.100000000000000533e+00 9.075604205168332772e-01
5.120000000000000107e+00 9.030373409850929178e-01
5.139999999999999680e+00 8.985369230363718929e-01
5.160000000000000142e+00 8.940591114019981189e-01
5.179999999999999716e+00 8.896038419473636383e-01
5.200000000000000178e+00 8.851710575195151920e-01
5.219999999999999751e+00 8.807606918258106266e-01
5.240000000000000213e+00 8.763726859409242120e-01
5.259999999999999787e+00 8.720069715197004134e-01
5.280000000000000249e+00 8.676634879730573680e-01
5.299999999999999822e+00 8.633421650055289609e-01
5.320000000000000284e+00 8.590429404696608984e-01
5.339999999999999858e+00 8.547657422186860643e-01
5.360000000000000320e+00 8.505105066489970778e-01
5.379999999999999893e+00 8.462771598583119781e-01
5.400000000000000355e+00 8.420656368859564811e-01
5.419999999999999929e+00 8.378758621668579432e-01
5.440000000000000391e+00 8.337077694793023630e-01
5.459999999999999964e+00 8.295612816850452820e-01
5.480000000000000426e+00 8.254363313943520186e-01
5.500000000000000000e+00 8.213328399824679771e-01
5.520000000000000462e+00 8.172507389817197376e-01
5.540000000000000036e+00 8.131899483645073090e-01
5.560000000000000497e+00 8.091503986724161157e-01
5.580000000000000071e+00 8.051320085558449913e-01
5.600000000000000533e+00 8.011347076499938380e-01
5.620000000000000107e+00 7.971584133612347189e-01
5.639999999999999680e+00 7.932030544999928434e-01
5.660000000000000142e+00 7.892685473038630883e-01
5.679999999999999716e+00 7.853548198374026290e-01
5.700000000000000178e+00 7.814617872419287181e-01
5.719999999999999751e+00 7.775893769123924937e-01
5.740000000000000213e+00 7.737375029637570956e-01
5.759999999999999787e+00 7.699060921950470204e-01
5.780000000000000249e+00 7.660950577621470359e-01
5.799999999999999822e+00 7.623043259393224025e-01
5.820000000000000284e+00 7.585338089882026624e-01
5.839999999999999858e+00 7.547834327269961063e-01
5.860000000000000320e+00 7.510531085853737743e-01
5.879999999999999893e+00 7.473427619918007192e-01
5.900000000000000355e+00 7.436523036039495160e-01
5.919999999999999929e+00 7.399816585245091449e-01
5.940000000000000391e+00 7.363307366967155598e-01
5.959999999999999964e+00 7.326994629591817576e-01
5.980000000000000426e+00 7.290877465960369230e-01
6.000000000000000000e+00 7.254955122412978241e-01
6.020000000000000462e+00 7.219226685730438797e-01
6.040000000000000036e+00 7.183691400780085612e-01
6.060000000000000497e+00 7.148348348791732088e-01
6.080000000000000071e+00 7.113196773712092691e-01
6.100000000000000533e+00 7.078235751707662171e-01
6.120000000000000107e+00 7.043464526336374876e-01
6.140000000000000568e+00 7.008882169169307064e-01
6.160000000000000142e+00 6.974487923887386920e-01
6.179999999999999716e+00 6.940280857913592172e-01
6.200000000000000178e+00 6.906260215544497427e-01
6.219999999999999751e+00 6.872425060483328130e-01
6.240000000000000213e+00 6.838774638116112969e-01
6.259999999999999787e+00 6.805308008835432299e-01
6.280000000000000249e+00 6.772024419572378884e-01
6.299999999999999822e+00 6.738922927799972928e-01
6.320000000000000284e+00 6.706002782432333165e-01
6.339999999999999858e+00 6.673263038395794711e-01
6.360000000000000320e+00 6.640702947008242374e-01
6.379999999999999893e+00 6.608321561005390254e-01
6.400000000000000355e+00 6.576118134513060376e-01
6.419999999999999929e+00 6.544091718414958292e-01
6.440000000000000391e+00 6.512241570032895055e-01
6.459999999999999964e+00 6.480566738721529330e-01
6.480000000000000426e+00 6.449066485371021118e-01
6.500000000000000000e+00 6.417739858113503670e-01
6.520000000000000462e+00 6.386586121764757928e-01
6.540000000000000036e+00 6.355604323526092836e-01
6.560000000000000497e+00 6.324793732481474029e-01
6.580000000000000071e+00 6.294153395177686239e-01
6.600000000000000533e+00 6.263682585295337057e-01
6.620000000000000107e+00 6.233380348989013831e-01
6.640000000000000568e+00 6.203245964850633287e-01
6.660000000000000142e+00 6.173278478890477095e-01
6.679999999999999716e+00 6.143477174913098970e-01
6.700000000000000178e+00 6.113841099019320380e-01
6.719999999999999751e+00 6.084369540514913410e-01
6.740000000000000213e+00 6.055061545812369106e-01
6.759999999999999787e+00 6.025916409994802603e-01
6.780000000000000249e+00 5.996933179995417307e-01
6.799999999999999822e+00 5.968111156938781248e-01
6.820000000000000284e+00 5.939449388474906666e-01
6.839999999999999858e+00 5.910947182022385782e-01
6.860000000000000320e+00 5.882603586132857387e-01
6.879999999999999893e+00 5.854417914760288166e-01
6.900000000000000355e+00 5.826389217530638653e-01
6.919999999999999929e+00 5.798516815163826665e-01
6.940000000000000391e+00 5.770799758522315859e-01
6.959999999999999964e+00 5.743237375312036930e-01
6.980000000000000426e+00 5.715828717782771573e-01
7.000000000000000000e+00 5.688573120836627472e-01
7.020000000000000462e+00 5.661469638251617198e-01
7.040000000000000036e+00 5.634517612326480629e-01
7.060000000000000497e+00 5.607716098497755874e-01
7.080000000000000071e+00 5.581064446651867739e-01
7.100000000000000533e+00 5.554561714005104012e-01
7.120000000000000107e+00 5.528207258213694297e-01
7.140000000000000568e+00 5.502000138384826045e-01
7.160000000000000142e+00 5.475939720118037091e-01
7.179999999999999716e+00 5.450025064514109063e-01
7.200000000000000178e+00 5.424255545281001512e-01
7.219999999999999751e+00 5.398630225606491084e-01
7.240000000000000213e+00 5.373148487464082246e-01
7.259999999999999787e+00 5.347809396214050492e-01
7.280000000000000249e+00 5.322612342244866790e-01
7.299999999999999822e+00 5.297556393166006350e-01
7.320000000000000284e+00 5.272640947922951904e-01
7.339999999999999858e+00 5.247865076443938293e-01
7.360000000000000320e+00 5.223228186366336567e-01
7.379999999999999893e+00 5.198729349998428839e-01
7.400000000000000355e+00 5.174367983797513171e-01
7.419999999999999929e+00 5.150143162506528594e-01
7.440000000000000391e+00 5.126054311524289586e-01
7.459999999999999964e+00 5.102100508075245733e-01
7.480000000000000426e+00 5.078281186614952425e-01
7.500000000000000000e+00 5.054595426890152732e-01
7.520000000000000462e+00 5.031042672522297865e-01
7.540000000000000036e+00 5.007622005814095223e-01
7.560000000000000497e+00 4.984332879656283577e-01
7.580000000000000071e+00 4.961174378935354623e-01
7.600000000000000533e+00 4.938145965909182533e-01
7.620000000000000107e+00 4.915246728069363469e-01
7.640000000000000568e+00 4.892476137133504044e-01
7.660000000000000142e+00 4.869833283214177744e-01
7.679999999999999716e+00 4.847317647576228072e-01
7.700000000000000178e+00 4.824928322963013549e-01
7.719999999999999751e+00 4.802664800269149104e-01
7.740000000000000213e+00 4.780526174873784839e-01
7.759999999999999787e+00 4.758511947379321927e-01
7.780000000000000249e+00 4.736621215799801110e-01
7.799999999999999822e+00 4.714853490518942647e-01
7.820000000000000284e+00 4.693207872180444884e-01
7.839999999999999858e+00 4.671683881018622864e-01
7.860000000000000320e+00 4.650280620296187717e-01
7.879999999999999893e+00 4.628997620163295967e-01
