# Electrodo circular de radio 6 mm y espesor 710.0 um.
# Volumen de simulacion (convencion z,y,x):
# N: 1024 x 1024 x 1024 | voxelSize:  0.02mm x 0.02mm x 0.02mm | FOV:  20.48mm x 20.48mm x 20.48mm
# 
# z [mm]		 delta[ppm]
0.000000000000000000e+00 2.362325479906164816e+00
2.000000000000000042e-02 2.359954560685615821e+00
4.000000000000000083e-02 2.357511275058148836e+00
5.999999999999999778e-02 2.354996004246677543e+00
8.000000000000000167e-02 2.352409139157413787e+00
1.000000000000000056e-01 2.349751082762330245e+00
1.199999999999999956e-01 2.347022246299876880e+00
1.400000000000000133e-01 2.344223052709064170e+00
1.600000000000000033e-01 2.341353932873430743e+00
1.799999999999999933e-01 2.338415329155496991e+00
2.000000000000000111e-01 2.335407691481190096e+00
2.200000000000000011e-01 2.332331481037554610e+00
2.399999999999999911e-01 2.329187166169672363e+00
2.600000000000000089e-01 2.325975226254212380e+00
2.800000000000000266e-01 2.322696147411985379e+00
2.999999999999999889e-01 2.319350426555646827e+00
3.200000000000000067e-01 2.315938566919558905e+00
3.400000000000000244e-01 2.312461082279885005e+00
3.599999999999999867e-01 2.308918492305129799e+00
3.800000000000000044e-01 2.305311326946337669e+00
4.000000000000000222e-01 2.301640121611091327e+00
4.199999999999999845e-01 2.297905421721586183e+00
4.400000000000000022e-01 2.294107777715351126e+00
4.600000000000000200e-01 2.290247749768790975e+00
4.799999999999999822e-01 2.286325902627818873e+00
5.000000000000000000e-01 2.282342810494323526e+00
5.200000000000000178e-01 2.278299051690178878e+00
5.400000000000000355e-01 2.274195213704000462e+00
5.600000000000000533e-01 2.270031887691974060e+00
5.799999999999999600e-01 2.265809673682166014e+00
5.999999999999999778e-01 2.261529174915786644e+00
6.199999999999999956e-01 2.257191003206226565e+00
6.400000000000000133e-01 2.252795773124410594e+00
6.600000000000000311e-01 2.248344107509598011e+00
6.800000000000000488e-01 2.243836631502662549e+00
7.000000000000000666e-01 2.239273978205581717e+00
7.199999999999999734e-01 2.234656782566516675e+00
7.399999999999999911e-01 2.229985687184824705e+00
7.600000000000000089e-01 2.225261336051931327e+00
7.800000000000000266e-01 2.220484380498587207e+00
8.000000000000000444e-01 2.215655472795611480e+00
8.200000000000000622e-01 2.210775272239998035e+00
8.399999999999999689e-01 2.205844438619698256e+00
8.599999999999999867e-01 2.200863638435086145e+00
8.800000000000000044e-01 2.195833538232058846e+00
9.000000000000000222e-01 2.190754810955218179e+00
9.200000000000000400e-01 2.185628129153647681e+00
9.400000000000000577e-01 2.180454171462120172e+00
9.599999999999999645e-01 2.175233615683958011e+00
9.799999999999999822e-01 2.169967145396443531e+00
1.000000000000000000e+00 2.164655442915304207e+00
1.020000000000000018e+00 2.159299196020370015e+00
1.040000000000000036e+00 2.153899090806287830e+00
1.060000000000000053e+00 2.148455818524401373e+00
1.080000000000000071e+00 2.142970068324365318e+00
1.100000000000000089e+00 2.137442534208086720e+00
1.120000000000000107e+00 2.131873907667024781e+00
1.140000000000000124e+00 2.126264884743930494e+00
1.159999999999999920e+00 2.120616158570665544e+00
1.179999999999999938e+00 2.114928426533376093e+00
1.199999999999999956e+00 2.109202382715760216e+00
1.219999999999999973e+00 2.103438725163207845e+00
1.239999999999999991e+00 2.097638148236490974e+00
1.260000000000000009e+00 2.091801349970307644e+00
1.280000000000000027e+00 2.085929024342468630e+00
1.300000000000000044e+00 2.080021868722157219e+00
1.320000000000000062e+00 2.074080576059754044e+00
1.340000000000000080e+00 2.068105842420032925e+00
1.360000000000000098e+00 2.062098359097833011e+00
1.380000000000000115e+00 2.056058820231316364e+00
1.400000000000000133e+00 2.049987914848753867e+00
1.419999999999999929e+00 2.043886334556862749e+00
1.439999999999999947e+00 2.037754765524063316e+00
1.459999999999999964e+00 2.031593896238815145e+00
1.479999999999999982e+00 2.025404409434749198e+00
1.500000000000000000e+00 2.019186989913826391e+00
1.520000000000000018e+00 2.012942316418840250e+00
1.540000000000000036e+00 2.006671069516101191e+00
1.560000000000000053e+00 2.000373923420855959e+00
1.580000000000000071e+00 1.994051553934149679e+00
1.600000000000000089e+00 1.987704630226752478e+00
1.620000000000000107e+00 1.981333822824738133e+00
1.640000000000000124e+00 1.974939795357594230e+00
1.660000000000000142e+00 1.968523212586958282e+00
1.679999999999999938e+00 1.962084732124640629e+00
1.699999999999999956e+00 1.955625012498883875e+00
1.719999999999999973e+00 1.949144704848088994e+00
1.739999999999999991e+00 1.942644461018856905e+00
1.760000000000000009e+00 1.936124925241283767e+00
1.780000000000000027e+00 1.929586742252949128e+00
1.800000000000000044e+00 1.923030548961702557e+00
1.820000000000000062e+00 1.916456982589694436e+00
1.840000000000000080e+00 1.909866672329627812e+00
1.860000000000000098e+00 1.903260247502831293e+00
1.880000000000000115e+00 1.896638329215009744e+00
1.900000000000000133e+00 1.890001538522299240e+00
1.919999999999999929e+00 1.883350488092586872e+00
1.939999999999999947e+00 1.876685790373398888e+00
1.959999999999999964e+00 1.870008049264950012e+00
1.979999999999999982e+00 1.863317868283608014e+00
2.000000000000000000e+00 1.856615842252886006e+00
2.020000000000000018e+00 1.849902565456183590e+00
2.040000000000000036e+00 1.843178623351962031e+00
2.060000000000000053e+00 1.836444600709387975e+00
2.080000000000000071e+00 1.829701073353992902e+00
2.100000000000000089e+00 1.822948616279760126e+00
2.120000000000000107e+00 1.816187795431657426e+00
2.140000000000000124e+00 1.809419175787616352e+00
2.160000000000000142e+00 1.802643313184352669e+00
2.180000000000000160e+00 1.795860762362646135e+00
2.200000000000000178e+00 1.789072068842928021e+00
2.220000000000000195e+00 1.782277776927182256e+00
2.240000000000000213e+00 1.775478421630826809e+00
2.260000000000000231e+00 1.768674536634504468e+00
2.280000000000000249e+00 1.761866646278832382e+00
2.300000000000000266e+00 1.755055273459277254e+00
2.319999999999999840e+00 1.748240931690407729e+00
2.339999999999999858e+00 1.741424132936985059e+00
2.359999999999999876e+00 1.734605379754406096e+00
2.379999999999999893e+00 1.727785173049084078e+00
2.399999999999999911e+00 1.720964004301797079e+00
2.419999999999999929e+00 1.714142363250371393e+00
2.439999999999999947e+00 1.707320730202745329e+00
2.459999999999999964e+00 1.700499583634890177e+00
2.479999999999999982e+00 1.693679392600408562e+00
2.500000000000000000e+00 1.686860624236605322e+00
2.520000000000000018e+00 1.680043736277498478e+00
2.540000000000000036e+00 1.673229184460885977e+00
2.560000000000000053e+00 1.666417415151692838e+00
2.580000000000000071e+00 1.659608872642806432e+00
2.600000000000000089e+00 1.652803991895754887e+00
2.620000000000000107e+00 1.646003205728049368e+00
2.640000000000000124e+00 1.639206937678204357e+00
2.660000000000000142e+00 1.632415609072267237e+00
2.680000000000000160e+00 1.625629632020271442e+00
2.700000000000000178e+00 1.618849416354581239e+00
2.720000000000000195e+00 1.612075362764876507e+00
2.740000000000000213e+00 1.605307869600905990e+00
2.760000000000000231e+00 1.598547326153189063e+00
2.780000000000000249e+00 1.591794119312703204e+00
2.800000000000000266e+00 1.585048627004493671e+00
2.819999999999999840e+00 1.578311224696806736e+00
2.839999999999999858e+00 1.571582278994862358e+00
2.859999999999999876e+00 1.564862153991882332e+00
2.879999999999999893e+00 1.558151205030314568e+00
2.899999999999999911e+00 1.551449784887153571e+00
2.919999999999999929e+00 1.544758237709994875e+00
2.939999999999999947e+00 1.538076905028981978e+00
2.959999999999999964e+00 1.531406119875067029e+00
2.979999999999999982e+00 1.524746212610929241e+00
3.000000000000000000e+00 1.518097505238870992e+00
3.020000000000000018e+00 1.511460317042986556e+00
3.040000000000000036e+00 1.504834959094152325e+00
3.060000000000000053e+00 1.498221739695686949e+00
3.080000000000000071e+00 1.491620959092979426e+00
3.100000000000000089e+00 1.485032914714824681e+00
3.120000000000000107e+00 1.478457896095235702e+00
3.140000000000000124e+00 1.471896189902633045e+00
3.160000000000000142e+00 1.465348075081451151e+00
3.180000000000000160e+00 1.458813827661295415e+00
3.200000000000000178e+00 1.452293716125973244e+00
3.220000000000000195e+00 1.445788005994741665e+00
3.240000000000000213e+00 1.439296955426419222e+00
3.260000000000000231e+00 1.432820819564783577e+00
3.280000000000000249e+00 1.426359846385502506e+00
3.300000000000000266e+00 1.419914280797689443e+00
3.320000000000000284e+00 1.413484360741418921e+00
3.339999999999999858e+00 1.407070321037431349e+00
3.359999999999999876e+00 1.400672389743029322e+00
3.379999999999999893e+00 1.394290791741889191e+00
3.399999999999999911e+00 1.387925745366192176e+00
3.419999999999999929e+00 1.381577465718448305e+00
3.439999999999999947e+00 1.375246161567726499e+00
3.459999999999999964e+00 1.368932038395433315e+00
3.479999999999999982e+00 1.362635295573526806e+00
3.500000000000000000e+00 1.356356129126087717e+00
3.520000000000000018e+00 1.350094729197505172e+00
3.540000000000000036e+00 1.343851282521682178e+00
3.560000000000000053e+00 1.337625970188157654e+00
3.580000000000000071e+00 1.331418969810727937e+00
3.600000000000000089e+00 1.325230453599572256e+00
3.620000000000000107e+00 1.319060590221067697e+00
3.640000000000000124e+00 1.312909543183938599e+00
3.660000000000000142e+00 1.306777472382030014e+00
3.680000000000000160e+00 1.300664532802596529e+00
3.700000000000000178e+00 1.294570875743717098e+00
3.720000000000000195e+00 1.288496647852877652e+00
3.740000000000000213e+00 1.282441992010714849e+00
3.760000000000000231e+00 1.276407046708045057e+00
3.780000000000000249e+00 1.270391946587616339e+00
3.800000000000000266e+00 1.264396822167774603e+00
3.820000000000000284e+00 1.258421800033843407e+00
3.839999999999999858e+00 1.252467002916696881e+00
3.859999999999999876e+00 1.246532549525353861e+00
3.879999999999999893e+00 1.240618554988724531e+00
3.899999999999999911e+00 1.234725130320985409e+00
3.919999999999999929e+00 1.228852383234838364e+00
3.939999999999999947e+00 1.223000417231199233e+00
3.959999999999999964e+00 1.217169332792300107e+00
3.979999999999999982e+00 1.211359226087206808e+00
4.000000000000000000e+00 1.205570190553182819e+00
4.020000000000000462e+00 1.199802315208487791e+00
4.040000000000000036e+00 1.194055686630410618e+00
4.060000000000000497e+00 1.188330386866834010e+00
4.080000000000000071e+00 1.182626495819377732e+00
4.099999999999999645e+00 1.176944088745169203e+00
4.120000000000000107e+00 1.171283239053564795e+00
4.139999999999999680e+00 1.165644015389508459e+00
4.160000000000000142e+00 1.160026484852409778e+00
4.179999999999999716e+00 1.154430709652433329e+00
4.200000000000000178e+00 1.148856750760065770e+00
4.219999999999999751e+00 1.143304664126692627e+00
4.240000000000000213e+00 1.137774504773474860e+00
4.259999999999999787e+00 1.132266322567505812e+00
4.280000000000000249e+00 1.126780166758598378e+00
4.299999999999999822e+00 1.121316081302319301e+00
4.320000000000000284e+00 1.115874109853383978e+00
4.339999999999999858e+00 1.110454290626777585e+00
4.360000000000000320e+00 1.105056661856479883e+00
4.379999999999999893e+00 1.099681256185874423e+00
4.400000000000000355e+00 1.094328106600544137e+00
4.419999999999999929e+00 1.088997240339186101e+00
4.440000000000000391e+00 1.083688685309202704e+00
4.459999999999999964e+00 1.078402463509289477e+00
4.480000000000000426e+00 1.073138597936684313e+00
4.500000000000000000e+00 1.067897105512482847e+00
4.520000000000000462e+00 1.062678004489411965e+00
4.540000000000000036e+00 1.057481306870991400e+00
4.560000000000000497e+00 1.052307026328693995e+00
4.580000000000000071e+00 1.047155170106003563e+00
4.600000000000000533e+00 1.042025747453899420e+00
4.620000000000000107e+00 1.036918761010810819e+00
4.639999999999999680e+00 1.031834215765419671e+00
4.660000000000000142e+00 1.026772109903492103e+00
4.679999999999999716e+00 1.021732444306972853e+00
4.700000000000000178e+00 1.016715212858653183e+00
4.719999999999999751e+00 1.011720412486633025e+00
4.740000000000000213e+00 1.006748032917705427e+00
4.759999999999999787e+00 1.001798067276272741e+00
4.780000000000000249e+00 9.968705012773179108e-01
4.799999999999999822e+00 9.919653243889234862e-01
4.820000000000000284e+00 9.870825184556583087e-01
4.839999999999999858e+00 9.822220694338460456e-01
4.860000000000000320e+00 9.773839554361793969e-01
4.879999999999999893e+00 9.725681590489475559e-01
4.900000000000000355e+00 9.677746547886387773e-01
4.919999999999999929e+00 9.630034220103804721e-01
4.940000000000000391e+00 9.582544317672216927e-01
4.959999999999999964e+00 9.535276603191104039e-01
4.980000000000000426e+00 9.488230753855340094e-01
5.000000000000000000e+00 9.441406502643526766e-01
5.020000000000000462e+00 9.394803494684351719e-01
5.040000000000000036e+00 9.348421434637497196e-01
5.060000000000000497e+00 9.302259936805795659e-01
5.080000000000000071e+00 9.256318678802890609e-01
5.100000000000000533e+00 9.210597245316695103e-01
5.120000000000000107e+00 9.165095288158779940e-01
5.139999999999999680e+00 9.119812363583971182e-01
5.160000000000000142e+00 9.074748098816688424e-01
5.179999999999999716e+00 9.029902022831279851e-01
5.200000000000000178e+00 8.985273739451145047e-01
5.219999999999999751e+00 8.940862751493837690e-01
5.240000000000000213e+00 8.896668640539142636e-01
5.259999999999999787e+00 8.852690884342448996e-01
5.280000000000000249e+00 8.808929043368732836e-01
5.299999999999999822e+00 8.765382571377392518e-01
5.320000000000000284e+00 8.722051008819049489e-01
5.339999999999999858e+00 8.678933786494529290e-01
5.360000000000000320e+00 8.636030425912558650e-01
5.379999999999999893e+00 8.593340335924659623e-01
5.400000000000000355e+00 8.550863020142105420e-01
5.419999999999999929e+00 8.508597866448343039e-01
5.440000000000000391e+00 8.466544361574110944e-01
5.459999999999999964e+00 8.424701873388396045e-01
5.480000000000000426e+00 8.383069872730977146e-01
5.500000000000000000e+00 8.341647708382470272e-01
5.520000000000000462e+00 8.300434836254382276e-01
5.540000000000000036e+00 8.259430586937983598e-01
5.560000000000000497e+00 8.218634402352580359e-01
5.580000000000000071e+00 8.178045595772425180e-01
5.600000000000000533e+00 8.137663596034272473e-01
5.620000000000000107e+00 8.097487699941402495e-01
5.639999999999999680e+00 8.057517324131953096e-01
5.660000000000000142e+00 8.017751749758090796e-01
5.679999999999999716e+00 7.978190382117784640e-01
5.700000000000000178e+00 7.938832487506417568e-01
5.719999999999999751e+00 7.899677460715062161e-01
5.740000000000000213e+00 7.860724553951556892e-01
5.759999999999999787e+00 7.821973152308693278e-01
5.780000000000000249e+00 7.783422494651069945e-01
5.799999999999999822e+00 7.745071957157614317e-01
5.820000000000000284e+00 7.706920766069760287e-01
5.839999999999999858e+00 7.668968289413102823e-01
5.860000000000000320e+00 7.631213741501946535e-01
5.879999999999999893e+00 7.593656482945799757e-01
5.900000000000000355e+00 7.556295716804442009e-01
5.919999999999999929e+00 7.519130796985529219e-01
5.940000000000000391e+00 7.482160915943869561e-01
5.959999999999999964e+00 7.445385421577103147e-01
5.980000000000000426e+00 7.408803496361971996e-01
6.000000000000000000e+00 7.372414482855890183e-01
6.020000000000000462e+00 7.336217554162363097e-01
6.040000000000000036e+00 7.300212048146750288e-01
6.060000000000000497e+00 7.264397129122468488e-01
6.080000000000000071e+00 7.228772130890006586e-01
6.100000000000000533e+00 7.193336209534413328e-01
6.120000000000000107e+00 7.158088695397899492e-01
6.140000000000000568e+00 7.123028736878309619e-01
6.160000000000000142e+00 7.088155661445799671e-01
6.179999999999999716e+00 7.053468610331781186e-01
6.200000000000000178e+00 7.018966908701084195e-01
6.219999999999999751e+00 6.984649691119483306e-01
6.240000000000000213e+00 6.950516280993871421e-01
6.259999999999999787e+00 6.916565806705983199e-01
6.280000000000000249e+00 6.882797590433399337e-01
6.299999999999999822e+00 6.849210754836222437e-01
6.320000000000000284e+00 6.815804621373069416e-01
6.339999999999999858e+00 6.782578307426484487e-01
6.360000000000000320e+00 6.749531134228532459e-01
6.379999999999999893e+00 6.716662214310175072e-01
6.400000000000000355e+00 6.683970869151985017e-01
6.419999999999999929e+00 6.651456206841633856e-01
6.440000000000000391e+00 6.619117549566319036e-01
6.459999999999999964e+00 6.586954001361641220e-01
6.480000000000000426e+00 6.554964885562972743e-01
6.500000000000000000e+00 6.523149302528278293e-01
6.520000000000000462e+00 6.491506577166643588e-01
6.540000000000000036e+00 6.460035806516494228e-01
6.560000000000000497e+00 6.428736317470484796e-01
6.580000000000000071e+00 6.397607204089812427e-01
6.600000000000000533e+00 6.366647795645427044e-01
6.620000000000000107e+00 6.335857183548023741e-01
6.640000000000000568e+00 6.305234699826750555e-01
6.660000000000000142e+00 6.274779433553632213e-01
6.679999999999999716e+00 6.244490719881514718e-01
6.700000000000000178e+00 6.214367645840866983e-01
6.719999999999999751e+00 6.184409550059879468e-01
6.740000000000000213e+00 6.154615517810370084e-01
6.759999999999999787e+00 6.124984891533939990e-01
6.780000000000000249e+00 6.095516755012857502e-01
6.799999999999999822e+00 6.066210454827062337e-01
6.820000000000000284e+00 6.037065073524888748e-01
6.839999999999999858e+00 6.008079962136833041e-01
6.860000000000000320e+00 5.979254202219899117e-01
6.879999999999999893e+00 5.950587149554976696e-01
6.900000000000000355e+00 5.922077884937662073e-01
6.919999999999999929e+00 5.893725769187114771e-01
6.940000000000000391e+00 5.865529882555177155e-01
6.959999999999999964e+00 5.837489591175455406e-01
6.980000000000000426e+00 5.809603974961750072e-01
7.000000000000000000e+00 5.781872405627210831e-01
7.020000000000000462e+00 5.754293962941636753e-01
7.040000000000000036e+00 5.726868024451911010e-01
7.060000000000000497e+00 5.699593669966689369e-01
7.080000000000000071e+00 5.672470283110179201e-01
7.100000000000000533e+00 5.645496943901912035e-01
7.120000000000000107e+00 5.618673042276873808e-01
7.140000000000000568e+00 5.591997658626858270e-01
7.160000000000000142e+00 5.565470189421289904e-01
7.179999999999999716e+00 5.539089715575392647e-01
7.200000000000000178e+00 5.512855640307099403e-01
7.219999999999999751e+00 5.486767045196400128e-01
7.240000000000000213e+00 5.460823340414627802e-01
7.259999999999999787e+00 5.435023608338227508e-01
7.280000000000000249e+00 5.409367266287966602e-01
7.299999999999999822e+00 5.383853397559089649e-01
7.320000000000000284e+00 5.358481426809281745e-01
7.339999999999999858e+00 5.333250438366085033e-01
7.360000000000000320e+00 5.308159864403256822e-01
7.379999999999999893e+00 5.283208790385354181e-01
7.400000000000000355e+00 5.258396656173367489e-01
7.419999999999999929e+00 5.233722548465210567e-01
7.440000000000000391e+00 5.209185914972697118e-01
7.459999999999999964e+00 5.184785843715205012e-01
7.480000000000000426e+00 5.160521790411476406e-01
7.500000000000000000e+00 5.136392844482710052e-01
7.520000000000000462e+00 5.112398469803484113e-01
7.540000000000000036e+00 5.088537757269663286e-01
7.560000000000000497e+00 5.064810179053716999e-01
7.580000000000000071e+00 5.041214827591471437e-01
7.600000000000000533e+00 5.017751183488724509e-01
7.620000000000000107e+00 4.994418340779722687e-01
7.640000000000000568e+00 4.971215788632690757e-01
7.660000000000000142e+00 4.948142622731642737e-01
7.679999999999999716e+00 4.925198340930201368e-01
7.700000000000000178e+00 4.902382040607107250e-01
7.719999999999999751e+00 4.879693228418351403e-01
7.740000000000000213e+00 4.857131003475949615e-01
7.759999999999999787e+00 4.834694881349669293e-01
7.780000000000000249e+00 4.812383962917173297e-01
7.799999999999999822e+00 4.790197772767934570e-01
7.820000000000000284e+00 4.768135413571711334e-01
7.839999999999999858e+00 4.746196419038374859e-01
7.860000000000000320e+00 4.724379893650588191e-01
7.879999999999999893e+00 4.702685380334296616e-01
