# Electrodo circular de radio 6 mm y espesor 710.0 um.
# Volumen de simulacion (convencion z,y,x):
# N: 1024 x 1024 x 1024 | voxelSize:  0.02mm x 0.02mm x 0.02mm | FOV:  20.48mm x 20.48mm x 20.48mm
# 
# z [mm]		 delta[ppm]
0.000000000000000000e+00 3.887471718449845071e+00
2.000000000000000042e-02 3.864929830451483195e+00
4.000000000000000083e-02 3.841938953468942319e+00
5.999999999999999778e-02 3.818520925010868261e+00
8.000000000000000167e-02 3.794697744052824895e+00
1.000000000000000056e-01 3.770491419196539074e+00
1.199999999999999956e-01 3.745923916969060130e+00
1.400000000000000133e-01 3.721017128556693532e+00
1.600000000000000033e-01 3.695792822999515614e+00
1.799999999999999933e-01 3.670272616252463038e+00
2.000000000000000111e-01 3.644477925391274020e+00
2.200000000000000011e-01 3.618429942349231876e+00
2.399999999999999911e-01 3.592149589285780209e+00
2.600000000000000089e-01 3.565657497377720642e+00
2.800000000000000266e-01 3.538973964409918960e+00
2.999999999999999889e-01 3.512118938482867492e+00
3.200000000000000067e-01 3.485111978384820564e+00
3.400000000000000244e-01 3.457972242212674185e+00
3.599999999999999867e-01 3.430718450866907521e+00
3.800000000000000044e-01 3.403368881567685023e+00
4.000000000000000222e-01 3.375941334652300618e+00
4.199999999999999845e-01 3.348453131928319060e+00
4.400000000000000022e-01 3.320921086808221290e+00
4.600000000000000200e-01 3.293361507378588904e+00
4.799999999999999822e-01 3.265790169819461575e+00
5.000000000000000000e-01 3.238222326004281726e+00
5.200000000000000178e-01 3.210672680047455430e+00
5.400000000000000355e-01 3.183155400191587159e+00
5.600000000000000533e-01 3.155684098273324079e+00
5.799999999999999600e-01 3.128271845604077672e+00
5.999999999999999778e-01 3.100931155075645318e+00
6.199999999999999956e-01 3.073674000703034093e+00
6.400000000000000133e-01 3.046511802065894781e+00
6.600000000000000311e-01 3.019455447155087402e+00
6.800000000000000488e-01 2.992515278809464885e+00
7.000000000000000666e-01 2.965701120494006027e+00
7.199999999999999734e-01 2.939022264390279027e+00
7.399999999999999911e-01 2.912487499729951690e+00
7.600000000000000089e-01 2.886105102187298321e+00
7.800000000000000266e-01 2.859882864398620494e+00
8.000000000000000444e-01 2.833828086322796480e+00
8.200000000000000622e-01 2.807947607591112504e+00
8.399999999999999689e-01 2.782247798511077175e+00
8.599999999999999867e-01 2.756734593912488762e+00
8.800000000000000044e-01 2.731413484499498612e+00
9.000000000000000222e-01 2.706289551884160538e+00
9.200000000000000400e-01 2.681367460012639370e+00
9.400000000000000577e-01 2.656651491106783780e+00
9.599999999999999645e-01 2.632145536925876605e+00
9.799999999999999822e-01 2.607853135367414588e+00
1.000000000000000000e+00 2.583777461351759452e+00
1.020000000000000018e+00 2.559921363864956056e+00
1.040000000000000036e+00 2.536287356289687267e+00
1.060000000000000053e+00 2.512877653703845748e+00
1.080000000000000071e+00 2.489694162507285480e+00
1.100000000000000089e+00 2.466738517819827337e+00
1.120000000000000107e+00 2.444012072286316339e+00
1.140000000000000124e+00 2.421515933445441249e+00
1.159999999999999920e+00 2.399250951618853378e+00
1.179999999999999938e+00 2.377217757148008204e+00
1.199999999999999956e+00 2.355416747300961067e+00
1.219999999999999973e+00 2.333848123297418642e+00
1.239999999999999991e+00 2.312511876185565196e+00
1.260000000000000009e+00 2.291407823596069537e+00
1.280000000000000027e+00 2.270535594563446669e+00
1.300000000000000044e+00 2.249894665967392182e+00
1.320000000000000062e+00 2.229484346287053498e+00
1.340000000000000080e+00 2.209303811703300369e+00
1.360000000000000098e+00 2.189352088790846196e+00
1.380000000000000115e+00 2.169628090267667453e+00
1.400000000000000133e+00 2.150130596639204139e+00
1.419999999999999929e+00 2.130858291591613884e+00
1.439999999999999947e+00 2.111809742613983687e+00
1.459999999999999964e+00 2.092983436040351641e+00
1.479999999999999982e+00 2.074377756681299090e+00
1.500000000000000000e+00 2.055991022526248546e+00
1.520000000000000018e+00 2.037821463423511226e+00
1.540000000000000036e+00 2.019867255459159239e+00
1.560000000000000053e+00 2.002126498727061055e+00
1.580000000000000071e+00 1.984597251404130791e+00
1.600000000000000089e+00 1.967277506656585739e+00
1.620000000000000107e+00 1.950165226433612897e+00
1.640000000000000124e+00 1.933258317556286743e+00
1.660000000000000142e+00 1.916554665253047185e+00
1.679999999999999938e+00 1.900052108480219326e+00
1.699999999999999956e+00 1.883748473223107567e+00
1.719999999999999973e+00 1.867641547095821641e+00
1.739999999999999991e+00 1.851729112431625079e+00
1.760000000000000009e+00 1.836008920210777218e+00
1.780000000000000027e+00 1.820478722963029927e+00
1.800000000000000044e+00 1.805136248070018379e+00
1.820000000000000062e+00 1.789979230501719920e+00
1.840000000000000080e+00 1.775005385539978553e+00
1.860000000000000098e+00 1.760212441369293446e+00
1.880000000000000115e+00 1.745598111265383778e+00
1.900000000000000133e+00 1.731160126059092308e+00
1.919999999999999929e+00 1.716896205833379208e+00
1.939999999999999947e+00 1.702804092277343528e+00
1.959999999999999964e+00 1.688881519932179165e+00
1.979999999999999982e+00 1.675126248450482302e+00
2.000000000000000000e+00 1.661536033430919046e+00
2.020000000000000018e+00 1.648108658596116438e+00
2.040000000000000036e+00 1.634841906252906263e+00
2.060000000000000053e+00 1.621733589400269127e+00
2.080000000000000071e+00 1.608781521851136986e+00
2.100000000000000089e+00 1.595983550279997276e+00
2.120000000000000107e+00 1.583337524039541089e+00
2.140000000000000124e+00 1.570841327155791056e+00
2.160000000000000142e+00 1.558492847871988607e+00
2.180000000000000160e+00 1.546290010597401787e+00
2.200000000000000178e+00 1.534230745208354563e+00
2.220000000000000195e+00 1.522313018955294694e+00
2.240000000000000213e+00 1.510534805550055815e+00
2.260000000000000231e+00 1.498894117034256457e+00
2.280000000000000249e+00 1.487388972679611232e+00
2.300000000000000266e+00 1.476017430819338117e+00
2.319999999999999840e+00 1.464777557587674250e+00
2.339999999999999858e+00 1.453667458714646088e+00
2.359999999999999876e+00 1.442685248128912301e+00
2.379999999999999893e+00 1.431829079715068564e+00
2.399999999999999911e+00 1.421097115803380273e+00
2.419999999999999929e+00 1.410487558887692394e+00
2.439999999999999947e+00 1.399998620023826579e+00
2.459999999999999964e+00 1.389628550505143556e+00
2.479999999999999982e+00 1.379375610190964441e+00
2.500000000000000000e+00 1.369238099135928532e+00
2.520000000000000018e+00 1.359214325868197681e+00
2.540000000000000036e+00 1.349302638967927015e+00
2.560000000000000053e+00 1.339501395314711019e+00
2.580000000000000071e+00 1.329808991609743085e+00
2.600000000000000089e+00 1.320223832610539105e+00
2.620000000000000107e+00 1.310744362590715584e+00
2.640000000000000124e+00 1.301369033579833578e+00
2.660000000000000142e+00 1.292096336754094521e+00
2.680000000000000160e+00 1.282924770697930095e+00
2.700000000000000178e+00 1.273852872718395313e+00
2.720000000000000195e+00 1.264879187144993367e+00
2.740000000000000213e+00 1.256002296560089437e+00
2.760000000000000231e+00 1.247220790152357539e+00
2.780000000000000249e+00 1.238533294855134637e+00
2.800000000000000266e+00 1.229938443768836986e+00
2.819999999999999840e+00 1.221434907198796216e+00
2.839999999999999858e+00 1.213021361161017886e+00
2.859999999999999876e+00 1.204696518310759856e+00
2.879999999999999893e+00 1.196459096545992695e+00
2.899999999999999911e+00 1.188307849817709982e+00
2.919999999999999929e+00 1.180241536844601535e+00
2.939999999999999947e+00 1.172258951795835724e+00
2.959999999999999964e+00 1.164358893130498451e+00
2.979999999999999982e+00 1.156540194143443223e+00
3.000000000000000000e+00 1.148801691942237913e+00
3.020000000000000018e+00 1.141142257846507135e+00
3.040000000000000036e+00 1.133560766515229190e+00
3.060000000000000053e+00 1.126056126189870499e+00
3.080000000000000071e+00 1.118627247984165907e+00
3.100000000000000089e+00 1.111273075961224821e+00
3.120000000000000107e+00 1.103992556598048402e+00
3.140000000000000124e+00 1.096784668686735742e+00
3.160000000000000142e+00 1.089648392985300918e+00
3.180000000000000160e+00 1.082582741933072024e+00
3.200000000000000178e+00 1.075586729499499405e+00
3.220000000000000195e+00 1.068659400703813711e+00
3.240000000000000213e+00 1.061799801672900667e+00
3.260000000000000231e+00 1.055007008955258785e+00
3.280000000000000249e+00 1.048280099799184129e+00
3.300000000000000266e+00 1.041618181251071862e+00
3.320000000000000284e+00 1.035020360664558048e+00
3.339999999999999858e+00 1.028485774573235645e+00
3.359999999999999876e+00 1.022013559441573571e+00
3.379999999999999893e+00 1.015602880302137745e+00
3.399999999999999911e+00 1.009252901758554977e+00
3.419999999999999929e+00 1.002962816377379385e+00
3.439999999999999947e+00 9.967318159535417665e-01
3.459999999999999964e+00 9.905591196470558968e-01
3.479999999999999982e+00 9.844439455208549017e-01
3.500000000000000000e+00 9.783855384126090016e-01
3.520000000000000018e+00 9.723831417550282685e-01
3.540000000000000036e+00 9.664360251731289875e-01
3.560000000000000053e+00 9.605434565965792482e-01
3.580000000000000071e+00 9.547047295728150473e-01
3.600000000000000089e+00 9.489191356812032296e-01
3.620000000000000107e+00 9.431859915525107052e-01
3.640000000000000124e+00 9.375046115941325642e-01
3.660000000000000142e+00 9.318743347065250315e-01
3.680000000000000160e+00 9.262944973289425343e-01
3.700000000000000178e+00 9.207644598435092975e-01
3.720000000000000195e+00 9.152835799504637215e-01
3.740000000000000213e+00 9.098512387506531018e-01
3.760000000000000231e+00 9.044668144594321113e-01
3.780000000000000249e+00 8.991297081584774809e-01
3.800000000000000266e+00 8.938393178570466224e-01
3.820000000000000284e+00 8.885950639041094723e-01
3.839999999999999858e+00 8.833963634058479286e-01
3.859999999999999876e+00 8.782426552892111937e-01
3.879999999999999893e+00 8.731333750840897245e-01
3.899999999999999911e+00 8.680679796295217576e-01
3.919999999999999929e+00 8.630459222291468890e-01
3.939999999999999947e+00 8.580666769914062630e-01
3.959999999999999964e+00 8.531297143664542393e-01
3.979999999999999982e+00 8.482345251117853202e-01
4.000000000000000000e+00 8.433805962189810934e-01
4.020000000000000462e+00 8.385674344963318649e-01
4.040000000000000036e+00 8.337945428933221104e-01
4.060000000000000497e+00 8.290614436919426788e-01
4.080000000000000071e+00 8.243676552370334809e-01
4.099999999999999645e+00 8.197127147280904857e-01
4.120000000000000107e+00 8.150961553631275169e-01
4.139999999999999680e+00 8.105175287228902903e-01
4.160000000000000142e+00 8.059763823361476565e-01
4.179999999999999716e+00 8.014722816483299539e-01
4.200000000000000178e+00 7.970047880156746478e-01
4.219999999999999751e+00 7.925734802504665888e-01
4.240000000000000213e+00 7.881779330516726079e-01
4.259999999999999787e+00 7.838177381190516435e-01
4.280000000000000249e+00 7.794924830274989613e-01
4.299999999999999822e+00 7.752017719023994724e-01
4.320000000000000284e+00 7.709452047451066381e-01
4.339999999999999858e+00 7.667223976620427539e-01
4.360000000000000320e+00 7.625329626483038359e-01
4.379999999999999893e+00 7.583765273631256632e-01
4.400000000000000355e+00 7.542527153788014527e-01
4.419999999999999929e+00 7.501611654952492492e-01
4.440000000000000391e+00 7.461015124610187454e-01
4.459999999999999964e+00 7.420734058197991923e-01
4.480000000000000426e+00 7.380764911105215376e-01
4.500000000000000000e+00 7.341104282387294067e-01
4.520000000000000462e+00 7.301748731623528554e-01
4.540000000000000036e+00 7.262694957810159613e-01
4.560000000000000497e+00 7.223939621142615453e-01
4.580000000000000071e+00 7.185479517019518481e-01
4.600000000000000533e+00 7.147311402813204539e-01
4.620000000000000107e+00 7.109432166917328821e-01
4.639999999999999680e+00 7.071838660571673207e-01
4.660000000000000142e+00 7.034527861887045486e-01
4.679999999999999716e+00 6.997496712786022144e-01
4.700000000000000178e+00 6.960742277940005218e-01
4.719999999999999751e+00 6.924261586889993714e-01
4.740000000000000213e+00 6.888051787831410699e-01
4.759999999999999787e+00 6.852109994974929785e-01
4.780000000000000249e+00 6.816433437115678728e-01
4.799999999999999822e+00 6.781019310296456659e-01
4.820000000000000284e+00 6.745864921099049560e-01
4.839999999999999858e+00 6.710967544667887363e-01
4.860000000000000320e+00 6.676324562662011575e-01
4.879999999999999893e+00 6.641933326699874796e-01
4.900000000000000355e+00 6.607791290911374515e-01
4.919999999999999929e+00 6.573895880860327612e-01
4.940000000000000391e+00 6.540244620636865847e-01
4.959999999999999964e+00 6.506835007316639219e-01
4.980000000000000426e+00 6.473664632534629204e-01
5.000000000000000000e+00 6.440731062536192431e-01
5.020000000000000462e+00 6.408031954174296940e-01
5.040000000000000036e+00 6.375564940609724784e-01
5.060000000000000497e+00 6.343327741674664733e-01
5.080000000000000071e+00 6.311318055275584316e-01
5.100000000000000533e+00 6.279533662066617561e-01
5.120000000000000107e+00 6.247972322611334839e-01
5.139999999999999680e+00 6.216631876310116933e-01
5.160000000000000142e+00 6.185510144373028707e-01
5.179999999999999716e+00 6.154605022946195714e-01
5.200000000000000178e+00 6.123914391950536773e-01
5.219999999999999751e+00 6.093436202352819908e-01
5.240000000000000213e+00 6.063168390921246376e-01
5.259999999999999787e+00 6.033108961587392294e-01
5.280000000000000249e+00 6.003255906172297873e-01
5.299999999999999822e+00 5.973607279786342650e-01
5.320000000000000284e+00 5.944161127575486869e-01
5.339999999999999858e+00 5.914915554106727757e-01
5.360000000000000320e+00 5.885868656186944436e-01
5.379999999999999893e+00 5.857018586182018982e-01
5.400000000000000355e+00 5.828363490957205739e-01
5.419999999999999929e+00 5.799901569078382835e-01
5.440000000000000391e+00 5.771631015925571262e-01
5.459999999999999964e+00 5.743550074725468635e-01
5.480000000000000426e+00 5.715656987885963103e-01
5.500000000000000000e+00 5.687950041809577417e-01
5.520000000000000462e+00 5.660427524499621610e-01
5.540000000000000036e+00 5.633087764104670603e-01
5.560000000000000497e+00 5.605929092843408013e-01
5.580000000000000071e+00 5.578949879230564735e-01
5.600000000000000533e+00 5.552148498370449436e-01
5.620000000000000107e+00 5.525523357815178560e-01
5.639999999999999680e+00 5.499072874273304157e-01
5.660000000000000142e+00 5.472795493051525462e-01
5.679999999999999716e+00 5.446689671227712415e-01
5.700000000000000178e+00 5.420753890627635352e-01
5.719999999999999751e+00 5.394986647508274169e-01
5.740000000000000213e+00 5.369386459021286973e-01
5.759999999999999787e+00 5.343951859455470244e-01
5.780000000000000249e+00 5.318681400139012583e-01
5.799999999999999822e+00 5.293573652286525100e-01
5.820000000000000284e+00 5.268627200292387291e-01
5.839999999999999858e+00 5.243840651230664562e-01
5.860000000000000320e+00 5.219212621492129722e-01
5.879999999999999893e+00 5.194741752982198202e-01
5.900000000000000355e+00 5.170426693054123168e-01
5.919999999999999929e+00 5.146266117453214273e-01
5.940000000000000391e+00 5.122258703498938637e-01
5.959999999999999964e+00 5.098403159820381614e-01
5.980000000000000426e+00 5.074698192739940383e-01
6.000000000000000000e+00 5.051142542848247041e-01
6.020000000000000462e+00 5.027734944542369133e-01
6.040000000000000036e+00 5.004474169484927071e-01
6.060000000000000497e+00 4.981358979249647656e-01
6.080000000000000071e+00 4.958388175713006052e-01
6.100000000000000533e+00 4.935560546759929501e-01
6.120000000000000107e+00 4.912874923652787440e-01
6.140000000000000568e+00 4.890330119750097571e-01
6.160000000000000142e+00 4.867924994901254854e-01
6.179999999999999716e+00 4.845658387130964417e-01
6.200000000000000178e+00 4.823529184104772272e-01
6.219999999999999751e+00 4.801536247731741369e-01
6.240000000000000213e+00 4.779678492749601659e-01
6.259999999999999787e+00 4.757954804198104015e-01
6.280000000000000249e+00 4.736364123169098939e-01
6.299999999999999822e+00 4.714905357102839867e-01
6.320000000000000284e+00 4.693577472752202273e-01
6.339999999999999858e+00 4.672379399253923093e-01
6.360000000000000320e+00 4.651310128352796891e-01
6.379999999999999893e+00 4.630368610199629420e-01
6.400000000000000355e+00 4.609553860885201582e-01
6.419999999999999929e+00 4.588864850916320459e-01
6.440000000000000391e+00 4.568300620106010013e-01
6.459999999999999964e+00 4.547860158678901921e-01
6.480000000000000426e+00 4.527542529568060470e-01
6.500000000000000000e+00 4.507346742100395431e-01
6.520000000000000462e+00 4.487271881747408320e-01
6.540000000000000036e+00 4.467316976340983126e-01
6.560000000000000497e+00 4.447481133329381775e-01
6.580000000000000071e+00 4.427763398473332779e-01
6.600000000000000533e+00 4.408162900655395178e-01
6.620000000000000107e+00 4.388678703005708392e-01
6.640000000000000568e+00 4.369309955317109972e-01
6.660000000000000142e+00 4.350055737549460844e-01
6.679999999999999716e+00 4.330915219899670876e-01
6.700000000000000178e+00 4.311887498633004689e-01
6.719999999999999751e+00 4.292971763861424539e-01
6.740000000000000213e+00 4.274167127649721176e-01
6.759999999999999787e+00 4.255472799552423302e-01
6.780000000000000249e+00 4.236887906941974036e-01
6.799999999999999822e+00 4.218411678359009209e-01
6.820000000000000284e+00 4.200043256008992310e-01
6.839999999999999858e+00 4.181781886977641860e-01
6.860000000000000320e+00 4.163626727841612252e-01
6.879999999999999893e+00 4.145577043805426243e-01
6.900000000000000355e+00 4.127632005371424384e-01
6.919999999999999929e+00 4.109790895451047588e-01
6.940000000000000391e+00 4.092052898038367470e-01
6.959999999999999964e+00 4.074417313353661529e-01
6.980000000000000426e+00 4.056883338464043476e-01
7.000000000000000000e+00 4.039450290513968977e-01
7.020000000000000462e+00 4.022117379235467527e-01
7.040000000000000036e+00 4.004883938325349835e-01
7.060000000000000497e+00 3.987749189786785053e-01
7.080000000000000071e+00 3.970712483509546420e-01
7.100000000000000533e+00 3.953773053383799474e-01
7.120000000000000107e+00 3.936930265144945595e-01
7.140000000000000568e+00 3.920183364199430476e-01
7.160000000000000142e+00 3.903531731792544979e-01
7.179999999999999716e+00 3.886974624485063368e-01
7.200000000000000178e+00 3.870511438707635588e-01
7.219999999999999751e+00 3.854141441826036685e-01
7.240000000000000213e+00 3.837864045142634906e-01
7.259999999999999787e+00 3.821678526486826932e-01
7.280000000000000249e+00 3.805584311729461322e-01
7.299999999999999822e+00 3.789580688834057187e-01
7.320000000000000284e+00 3.773667097946872828e-01
7.339999999999999858e+00 3.757842836843282575e-01
7.360000000000000320e+00 3.742107359661679400e-01
7.379999999999999893e+00 3.726459973678171167e-01
7.400000000000000355e+00 3.710900146749489537e-01
7.419999999999999929e+00 3.695427195347815164e-01
7.440000000000000391e+00 3.680040600783590632e-01
7.459999999999999964e+00 3.664739688431017939e-01
7.480000000000000426e+00 3.649523952798483517e-01
7.500000000000000000e+00 3.634392727873944073e-01
7.520000000000000462e+00 3.619345521116505981e-01
7.540000000000000036e+00 3.604381674849704287e-01
7.560000000000000497e+00 3.589500709244515808e-01
7.580000000000000071e+00 3.574701974686856354e-01
7.600000000000000533e+00 3.559985003828726735e-01
7.620000000000000107e+00 3.545349154854887108e-01
7.640000000000000568e+00 3.530793972675368431e-01
7.660000000000000142e+00 3.516318823014699668e-01
7.679999999999999716e+00 3.501923262825441530e-01
7.700000000000000178e+00 3.487606665121837368e-01
7.719999999999999751e+00 3.473368598690861897e-01
7.740000000000000213e+00 3.459208443590421345e-01
7.759999999999999787e+00 3.445125780240860802e-01
7.780000000000000249e+00 3.431119995506271003e-01
7.799999999999999822e+00 3.417190681246188300e-01
7.820000000000000284e+00 3.403337230896897880e-01
7.839999999999999858e+00 3.389559247569654543e-01
7.860000000000000320e+00 3.375856131047042519e-01
7.879999999999999893e+00 3.362227495511078690e-01
