# Electrodo circular de radio 6 mm y espesor 710.0 um.
# Volumen de simulacion (convencion z,y,x):
# N: 1024 x 1024 x 1024 | voxelSize:  0.02mm x 0.02mm x 0.02mm | FOV:  20.48mm x 20.48mm x 20.48mm
# 
# z [mm]		 delta[ppm]
0.000000000000000000e+00 2.512269468378060200e+00
2.000000000000000042e-02 2.509049378662356222e+00
4.000000000000000083e-02 2.505733510251337837e+00
5.999999999999999778e-02 2.502322548281299408e+00
8.000000000000000167e-02 2.498817237903327992e+00
1.000000000000000056e-01 2.495218356115016523e+00
1.199999999999999956e-01 2.491526689529375727e+00
1.400000000000000133e-01 2.487743045601142455e+00
1.600000000000000033e-01 2.483868244767718281e+00
1.799999999999999933e-01 2.479903126399912505e+00
2.000000000000000111e-01 2.475848542869309554e+00
2.200000000000000011e-01 2.471705364579352526e+00
2.399999999999999911e-01 2.467474474040419530e+00
2.600000000000000089e-01 2.463156770942346530e+00
2.800000000000000266e-01 2.458753166130058787e+00
2.999999999999999889e-01 2.454264586803006409e+00
3.200000000000000067e-01 2.449691970315450718e+00
3.400000000000000244e-01 2.445036269548987562e+00
3.599999999999999867e-01 2.440298446521910858e+00
3.800000000000000044e-01 2.435479477949154425e+00
4.000000000000000222e-01 2.430580348651863787e+00
4.199999999999999845e-01 2.425602057315455529e+00
4.400000000000000022e-01 2.420545609692194233e+00
4.600000000000000200e-01 2.415412024562200166e+00
4.799999999999999822e-01 2.410202326732208800e+00
5.000000000000000000e-01 2.404917553202196689e+00
5.200000000000000178e-01 2.399558745957473871e+00
5.400000000000000355e-01 2.394126958342106537e+00
5.600000000000000533e-01 2.388623247650480952e+00
5.799999999999999600e-01 2.383048681707359506e+00
5.999999999999999778e-01 2.377404331258547554e+00
6.199999999999999956e-01 2.371691276756992206e+00
6.400000000000000133e-01 2.365910600559408383e+00
6.600000000000000311e-01 2.360063393916907337e+00
6.800000000000000488e-01 2.354150748978807162e+00
7.000000000000000666e-01 2.348173765986074191e+00
7.199999999999999734e-01 2.342133545089319924e+00
7.399999999999999911e-01 2.336031193742724277e+00
7.600000000000000089e-01 2.329867818338423380e+00
7.800000000000000266e-01 2.323644531798502388e+00
8.000000000000000444e-01 2.317362445032682849e+00
8.200000000000000622e-01 2.311022674725416337e+00
8.399999999999999689e-01 2.304626334619835681e+00
8.599999999999999867e-01 2.298174543496925182e+00
8.800000000000000044e-01 2.291668416292518273e+00
9.000000000000000222e-01 2.285109072265066210e+00
9.200000000000000400e-01 2.278497625949169159e+00
9.400000000000000577e-01 2.271835195508442151e+00
9.599999999999999645e-01 2.265122893532184101e+00
9.799999999999999822e-01 2.258361835569431708e+00
1.000000000000000000e+00 2.251553130772688149e+00
1.020000000000000018e+00 2.244697890609158364e+00
1.040000000000000036e+00 2.237797219358033107e+00
1.060000000000000053e+00 2.230852222994624157e+00
1.080000000000000071e+00 2.223863999545393266e+00
1.100000000000000089e+00 2.216833648140571267e+00
1.120000000000000107e+00 2.209762259233359227e+00
1.140000000000000124e+00 2.202650923816331208e+00
1.159999999999999920e+00 2.195500723509268060e+00
1.179999999999999938e+00 2.188312739934540119e+00
1.199999999999999956e+00 2.181088044679913018e+00
1.219999999999999973e+00 2.173827708827875238e+00
1.239999999999999991e+00 2.166532792798059770e+00
1.260000000000000009e+00 2.159204356025368643e+00
1.280000000000000027e+00 2.151843446688297856e+00
1.300000000000000044e+00 2.144451111530471188e+00
1.320000000000000062e+00 2.137028385479719628e+00
1.340000000000000080e+00 2.129576301607521316e+00
1.360000000000000098e+00 2.122095880645102461e+00
1.380000000000000115e+00 2.114588141075084415e+00
1.400000000000000133e+00 2.107054088549600301e+00
1.419999999999999929e+00 2.099494726108368958e+00
1.439999999999999947e+00 2.091911043505059187e+00
1.459999999999999964e+00 2.084304027545795357e+00
1.479999999999999982e+00 2.076674651328944687e+00
1.500000000000000000e+00 2.069023884697965610e+00
1.520000000000000018e+00 2.061352683400866415e+00
1.540000000000000036e+00 2.053661999651133829e+00
1.560000000000000053e+00 2.045952771212172561e+00
1.580000000000000071e+00 2.038225932059979151e+00
1.600000000000000089e+00 2.030482401398821413e+00
1.620000000000000107e+00 2.022723094419166312e+00
1.640000000000000124e+00 2.014948911250051378e+00
1.660000000000000142e+00 2.007160747805669665e+00
1.679999999999999938e+00 1.999359484680749643e+00
1.699999999999999956e+00 1.991545998079089941e+00
1.719999999999999973e+00 1.983721148657526578e+00
1.739999999999999991e+00 1.975885792529616936e+00
1.760000000000000009e+00 1.968040770064569012e+00
1.780000000000000027e+00 1.960186916959145265e+00
1.800000000000000044e+00 1.952325052997287536e+00
1.820000000000000062e+00 1.944455993183252129e+00
1.840000000000000080e+00 1.936580536468368363e+00
1.860000000000000098e+00 1.928699476938293689e+00
1.880000000000000115e+00 1.920813592512780943e+00
1.900000000000000133e+00 1.912923656179900345e+00
1.919999999999999929e+00 1.905030424675309142e+00
1.939999999999999947e+00 1.897134649756192726e+00
1.959999999999999964e+00 1.889237066866056969e+00
1.979999999999999982e+00 1.881338406441053213e+00
2.000000000000000000e+00 1.873439382566895572e+00
2.020000000000000018e+00 1.865540704310188147e+00
2.040000000000000036e+00 1.857643064373606379e+00
2.060000000000000053e+00 1.849747150444774890e+00
2.080000000000000071e+00 1.841853633856405104e+00
2.100000000000000089e+00 1.833963180945198834e+00
2.120000000000000107e+00 1.826076441723251564e+00
2.140000000000000124e+00 1.818194061239402526e+00
2.160000000000000142e+00 1.810316668268684204e+00
2.180000000000000160e+00 1.802444886668496560e+00
2.200000000000000178e+00 1.794579324092544947e+00
2.220000000000000195e+00 1.786720583334156842e+00
2.240000000000000213e+00 1.778869251071601099e+00
2.260000000000000231e+00 1.771025909190830916e+00
2.280000000000000249e+00 1.763191123568744523e+00
2.300000000000000266e+00 1.755365455367593031e+00
2.319999999999999840e+00 1.747549449863193605e+00
2.339999999999999858e+00 1.739743647703181795e+00
2.359999999999999876e+00 1.731948573786892265e+00
2.379999999999999893e+00 1.724164748479618314e+00
2.399999999999999911e+00 1.716392676551249385e+00
2.419999999999999929e+00 1.708632858338668070e+00
2.439999999999999947e+00 1.700885778749993138e+00
2.459999999999999964e+00 1.693151918367194586e+00
2.479999999999999982e+00 1.685431742523154419e+00
2.500000000000000000e+00 1.677725712336557429e+00
2.520000000000000018e+00 1.670034273868741037e+00
2.540000000000000036e+00 1.662357869082901063e+00
2.560000000000000053e+00 1.654696925088037007e+00
2.580000000000000071e+00 1.647051865014472982e+00
2.600000000000000089e+00 1.639423097351994985e+00
2.620000000000000107e+00 1.631811026733678061e+00
2.640000000000000124e+00 1.624216043375627860e+00
2.660000000000000142e+00 1.616638533761056484e+00
2.680000000000000160e+00 1.609078870188857424e+00
2.700000000000000178e+00 1.601537421349874535e+00
2.720000000000000195e+00 1.594014541991798595e+00
2.740000000000000213e+00 1.586510583379553418e+00
2.760000000000000231e+00 1.579025883083861048e+00
2.780000000000000249e+00 1.571560775317631276e+00
2.800000000000000266e+00 1.564115580855784060e+00
2.819999999999999840e+00 1.556690617239549601e+00
2.839999999999999858e+00 1.549286188834975375e+00
2.859999999999999876e+00 1.541902596896994826e+00
2.879999999999999893e+00 1.534540129774321970e+00
2.899999999999999911e+00 1.527199072825130122e+00
2.919999999999999929e+00 1.519879698775887578e+00
2.939999999999999947e+00 1.512582277480463366e+00
2.959999999999999964e+00 1.505307066440681796e+00
2.979999999999999982e+00 1.498054320400696193e+00
3.000000000000000000e+00 1.490824282036882442e+00
3.020000000000000018e+00 1.483617191379297484e+00
3.040000000000000036e+00 1.476433276678761120e+00
3.060000000000000053e+00 1.469272763647187396e+00
3.080000000000000071e+00 1.462135866509603588e+00
3.100000000000000089e+00 1.455022797055127270e+00
3.120000000000000107e+00 1.447933755881840590e+00
3.140000000000000124e+00 1.440868941250201818e+00
3.160000000000000142e+00 1.433828540528586659e+00
3.180000000000000160e+00 1.426812738840884887e+00
3.200000000000000178e+00 1.419821710720707841e+00
3.220000000000000195e+00 1.412855628544946285e+00
3.240000000000000213e+00 1.405914654404500475e+00
3.260000000000000231e+00 1.398998948315542945e+00
3.280000000000000249e+00 1.392108660314866020e+00
3.300000000000000266e+00 1.385243938440561040e+00
3.320000000000000284e+00 1.378404921059936061e+00
3.339999999999999858e+00 1.371591744611342367e+00
3.359999999999999876e+00 1.364804536172787630e+00
3.379999999999999893e+00 1.358043420956624558e+00
3.399999999999999911e+00 1.351308515126891541e+00
3.419999999999999929e+00 1.344599933038546080e+00
3.439999999999999947e+00 1.337917780311715488e+00
3.459999999999999964e+00 1.331262160807213046e+00
3.479999999999999982e+00 1.324633169965744317e+00
3.500000000000000000e+00 1.318030901511378694e+00
3.520000000000000018e+00 1.311455441063977156e+00
3.540000000000000036e+00 1.304906872562311859e+00
3.560000000000000053e+00 1.298385272157823511e+00
3.580000000000000071e+00 1.291890714349035241e+00
3.600000000000000089e+00 1.285423266164974043e+00
3.620000000000000107e+00 1.278982993002542701e+00
3.640000000000000124e+00 1.272569953107747676e+00
3.660000000000000142e+00 1.266184203107700856e+00
3.680000000000000160e+00 1.259825792798006772e+00
3.700000000000000178e+00 1.253494770361010424e+00
3.720000000000000195e+00 1.247191177467588563e+00
3.740000000000000213e+00 1.240915054173286070e+00
3.760000000000000231e+00 1.234666434342864383e+00
3.780000000000000249e+00 1.228445350215976672e+00
3.800000000000000266e+00 1.222251828162740583e+00
3.820000000000000284e+00 1.216085892910550248e+00
3.839999999999999858e+00 1.209947563639121704e+00
3.859999999999999876e+00 1.203836857860039355e+00
3.879999999999999893e+00 1.197753787859576313e+00
3.899999999999999911e+00 1.191698364222572692e+00
3.919999999999999929e+00 1.185670592631506537e+00
3.939999999999999947e+00 1.179670477026284026e+00
3.959999999999999964e+00 1.173698016767902530e+00
3.979999999999999982e+00 1.167753209425734129e+00
4.000000000000000000e+00 1.161836048314297321e+00
4.020000000000000462e+00 1.155946524899574390e+00
4.040000000000000036e+00 1.150084626717278402e+00
4.060000000000000497e+00 1.144250339389781823e+00
4.080000000000000071e+00 1.138443644934399313e+00
4.099999999999999645e+00 1.132664523382477917e+00
4.120000000000000107e+00 1.126912951486108705e+00
4.139999999999999680e+00 1.121188903930903757e+00
4.160000000000000142e+00 1.115492352449735103e+00
4.179999999999999716e+00 1.109823266620703297e+00
4.200000000000000178e+00 1.104181613396347794e+00
4.219999999999999751e+00 1.098567357478325457e+00
4.240000000000000213e+00 1.092980461270713910e+00
4.259999999999999787e+00 1.087420884822875022e+00
4.280000000000000249e+00 1.081888586215331349e+00
4.299999999999999822e+00 1.076383521062319604e+00
4.320000000000000284e+00 1.070905643338884161e+00
4.339999999999999858e+00 1.065454904434554262e+00
4.360000000000000320e+00 1.060031254430220615e+00
4.379999999999999893e+00 1.054634640694370296e+00
4.400000000000000355e+00 1.049265009618407074e+00
4.419999999999999929e+00 1.043922304746913943e+00
4.440000000000000391e+00 1.038606468979948794e+00
4.459999999999999964e+00 1.033317442228766536e+00
4.480000000000000426e+00 1.028055164093834462e+00
4.500000000000000000e+00 1.022819571037356212e+00
4.520000000000000462e+00 1.017610599545640371e+00
4.540000000000000036e+00 1.012428182809843591e+00
4.560000000000000497e+00 1.007272254381399224e+00
4.580000000000000071e+00 1.002142744352342518e+00
4.600000000000000533e+00 9.970395835124736816e-01
4.620000000000000107e+00 9.919626990205979711e-01
4.639999999999999680e+00 9.869120190722173724e-01
4.660000000000000142e+00 9.818874680530128574e-01
4.679999999999999716e+00 9.768889717257411842e-01
4.700000000000000178e+00 9.719164518572742661e-01
4.719999999999999751e+00 9.669698319335502390e-01
4.740000000000000213e+00 9.620490312514204945e-01
4.759999999999999787e+00 9.571539711704070141e-01
4.780000000000000249e+00 9.522845686606232762e-01
4.799999999999999822e+00 9.474407431002094260e-01
4.820000000000000284e+00 9.426224092705643987e-01
4.839999999999999858e+00 9.378294847082373487e-01
4.860000000000000320e+00 9.330618821386986728e-01
4.879999999999999893e+00 9.283195173915973486e-01
4.900000000000000355e+00 9.236023012642576857e-01
4.919999999999999929e+00 9.189101480091559360e-01
4.940000000000000391e+00 9.142429666182885217e-01
4.959999999999999964e+00 9.096006698918431832e-01
4.980000000000000426e+00 9.049831651345785488e-01
5.000000000000000000e+00 9.003903638145790422e-01
5.020000000000000462e+00 8.958221716627516873e-01
5.040000000000000036e+00 8.912784989306945516e-01
5.060000000000000497e+00 8.867592498843817062e-01
5.080000000000000071e+00 8.822643336700980443e-01
5.100000000000000533e+00 8.777936531933615560e-01
5.120000000000000107e+00 8.733471166020123633e-01
5.139999999999999680e+00 8.689246255413736186e-01
5.160000000000000142e+00 8.645260872635206484e-01
5.179999999999999716e+00 8.601514022496606904e-01
5.200000000000000178e+00 8.558004769547302715e-01
5.219999999999999751e+00 8.514732107879339207e-01
5.240000000000000213e+00 8.471695095017600652e-01
5.259999999999999787e+00 8.428892715215809961e-01
5.280000000000000249e+00 8.386324019883103498e-01
5.299999999999999822e+00 8.343987984279481740e-01
5.320000000000000284e+00 8.301883654570135773e-01
5.339999999999999858e+00 8.260009997828801076e-01
5.360000000000000320e+00 8.218366055812895699e-01
5.379999999999999893e+00 8.176950788182406615e-01
5.400000000000000355e+00 8.135763233088435520e-01
5.419999999999999929e+00 8.094802343515103971e-01
5.440000000000000391e+00 8.054067154775180759e-01
5.459999999999999964e+00 8.013556613882143465e-01
5.480000000000000426e+00 7.973269754046001800e-01
5.500000000000000000e+00 7.933205516982250183e-01
5.520000000000000462e+00 7.893362934502465844e-01
5.540000000000000036e+00 7.853740943666212004e-01
5.560000000000000497e+00 7.814338575560748623e-01
5.580000000000000071e+00 7.775154763201420627e-01
5.600000000000000533e+00 7.736188537595881654e-01
5.620000000000000107e+00 7.697438828298518443e-01
5.639999999999999680e+00 7.658904666854020604e-01
5.660000000000000142e+00 7.620584979910519641e-01
5.679999999999999716e+00 7.582478800139160757e-01
5.700000000000000178e+00 7.544585051809939991e-01
5.719999999999999751e+00 7.506902769283532173e-01
5.740000000000000213e+00 7.469430874953557620e-01
5.759999999999999787e+00 7.432168405407933998e-01
5.780000000000000249e+00 7.395114281640717824e-01
5.799999999999999822e+00 7.358267542980410081e-01
5.820000000000000284e+00 7.321627109473788364e-01
5.839999999999999858e+00 7.285192023679598616e-01
5.860000000000000320e+00 7.248961205126467355e-01
5.879999999999999893e+00 7.212933700070436327e-01
5.900000000000000355e+00 7.177108427928208245e-01
5.919999999999999929e+00 7.141484439098207959e-01
5.940000000000000391e+00 7.106060653269996585e-01
5.959999999999999964e+00 7.070836125408510586e-01
5.980000000000000426e+00 7.035809775839553248e-01
6.000000000000000000e+00 7.000980664498348549e-01
6.020000000000000462e+00 6.966347712690545979e-01
6.040000000000000036e+00 6.931909985705861921e-01
6.060000000000000497e+00 6.897666406153564189e-01
6.080000000000000071e+00 6.863616045043408054e-01
6.100000000000000533e+00 6.829757826593433334e-01
6.120000000000000107e+00 6.796090827880948426e-01
6.140000000000000568e+00 6.762613975019742263e-01
6.160000000000000142e+00 6.729326351484632429e-01
6.179999999999999716e+00 6.696226885555021102e-01
6.200000000000000178e+00 6.663314667416703196e-01
6.219999999999999751e+00 6.630588627767363130e-01
6.240000000000000213e+00 6.598047863801116408e-01
6.259999999999999787e+00 6.565691308871052234e-01
6.280000000000000249e+00 6.533518067461566714e-01
6.299999999999999822e+00 6.501527075802221445e-01
6.320000000000000284e+00 6.469717445934893840e-01
6.339999999999999858e+00 6.438088117172310332e-01
6.360000000000000320e+00 6.406638209366786185e-01
6.379999999999999893e+00 6.375366665106189101e-01
6.400000000000000355e+00 6.344272612292656266e-01
6.419999999999999929e+00 6.313354996967693866e-01
6.440000000000000391e+00 6.282612955309622160e-01
6.459999999999999964e+00 6.252045436978584947e-01
6.480000000000000426e+00 6.221651586642856779e-01
6.500000000000000000e+00 6.191430357733858081e-01
6.520000000000000462e+00 6.161380903611628490e-01
6.540000000000000036e+00 6.131502181618885272e-01
6.560000000000000497e+00 6.101793353997734259e-01
6.580000000000000071e+00 6.072253382130928800e-01
6.600000000000000533e+00 6.042881437321981908e-01
6.620000000000000107e+00 6.013676485110703851e-01
6.640000000000000568e+00 5.984637706030776494e-01
6.660000000000000142e+00 5.955764069885769452e-01
6.679999999999999716e+00 5.927054766598173208e-01
6.700000000000000178e+00 5.898508770331195583e-01
6.719999999999999751e+00 5.870125280545225310e-01
6.740000000000000213e+00 5.841903275849441579e-01
6.759999999999999787e+00 5.813841965381923993e-01
6.780000000000000249e+00 5.785940332274265296e-01
6.799999999999999822e+00 5.758197595473234509e-01
6.820000000000000284e+00 5.730612742700439410e-01
6.839999999999999858e+00 5.703185002833964790e-01
6.860000000000000320e+00 5.675913368243924451e-01
6.879999999999999893e+00 5.648797077854246229e-01
6.900000000000000355e+00 5.621835128734014031e-01
6.919999999999999929e+00 5.595026769959896562e-01
6.940000000000000391e+00 5.568371003341988645e-01
6.959999999999999964e+00 5.541867088209176950e-01
6.980000000000000426e+00 5.515514031147266127e-01
7.000000000000000000e+00 5.489311101829994488e-01
7.020000000000000462e+00 5.463257311645741687e-01
7.040000000000000036e+00 5.437351940699063357e-01
7.060000000000000497e+00 5.411594005201070257e-01
7.080000000000000071e+00 5.385982795766721676e-01
7.100000000000000533e+00 5.360517333442920140e-01
7.120000000000000107e+00 5.335196919428618623e-01
7.140000000000000568e+00 5.310020579613391467e-01
7.160000000000000142e+00 5.284987625848088788e-01
7.179999999999999716e+00 5.260097088865228754e-01
7.200000000000000178e+00 5.235348291229959816e-01
7.219999999999999751e+00 5.210740268512533691e-01
7.240000000000000213e+00 5.186272354049634714e-01
7.259999999999999787e+00 5.161943588237892788e-01
7.280000000000000249e+00 5.137753315237889584e-01
7.299999999999999822e+00 5.113700580256173023e-01
7.320000000000000284e+00 5.089784738324946156e-01
7.339999999999999858e+00 5.066004839438744689e-01
7.360000000000000320e+00 5.042360249544657336e-01
7.379999999999999893e+00 5.018850023398605531e-01
7.400000000000000355e+00 4.995473537901656824e-01
7.419999999999999929e+00 4.972229852539404860e-01
7.440000000000000391e+00 4.949118355202120068e-01
7.459999999999999964e+00 4.926138110069118725e-01
7.480000000000000426e+00 4.903288516051333423e-01
7.500000000000000000e+00 4.880568641981190003e-01
7.520000000000000462e+00 4.857977897818187007e-01
7.540000000000000036e+00 4.835515357003580261e-01
7.560000000000000497e+00 4.813180440570016816e-01
7.580000000000000071e+00 4.790972226518751542e-01
7.600000000000000533e+00 4.768890146977076694e-01
7.620000000000000107e+00 4.746933284454249447e-01
7.640000000000000568e+00 4.725101082190800716e-01
7.660000000000000142e+00 4.703392627147720551e-01
7.679999999999999716e+00 4.681807373694615859e-01
7.700000000000000178e+00 4.660344413185135704e-01
7.719999999999999751e+00 4.639003211131085824e-01
7.740000000000000213e+00 4.617782863215948996e-01
7.759999999999999787e+00 4.596682846104586107e-01
7.780000000000000249e+00 4.575702259744708900e-01
7.799999999999999822e+00 4.554840591962784346e-01
7.820000000000000284e+00 4.534096946901773340e-01
7.839999999999999858e+00 4.513470823556168798e-01
7.860000000000000320e+00 4.492961330192836167e-01
7.879999999999999893e+00 4.472567976978764070e-01
