# Electrodo circular de radio 6 mm y espesor 710.0 um.
# Volumen de simulacion (convencion z,y,x):
# N: 1024 x 1024 x 1024 | voxelSize:  0.02mm x 0.02mm x 0.02mm | FOV:  20.48mm x 20.48mm x 20.48mm
# 
# z [mm]		 delta[ppm]
0.000000000000000000e+00 3.521363450204609613e+00
2.000000000000000042e-02 3.506522026123170210e+00
4.000000000000000083e-02 3.491339530476631925e+00
5.999999999999999778e-02 3.475827193944232896e+00
8.000000000000000167e-02 3.459996393477324794e+00
1.000000000000000056e-01 3.443858590238798367e+00
1.199999999999999956e-01 3.427425309057777092e+00
1.400000000000000133e-01 3.410708120699495360e+00
1.600000000000000033e-01 3.393718619102928269e+00
1.799999999999999933e-01 3.376468411780983558e+00
2.000000000000000111e-01 3.358969094302982406e+00
2.200000000000000011e-01 3.341232243712615180e+00
2.399999999999999911e-01 3.323269392733266159e+00
2.600000000000000089e-01 3.305092025101815434e+00
2.800000000000000266e-01 3.286711549858421400e+00
2.999999999999999889e-01 3.268139298517461988e+00
3.200000000000000067e-01 3.249386499753607271e+00
3.400000000000000244e-01 3.230464278390554167e+00
3.599999999999999867e-01 3.211383630620541219e+00
3.800000000000000044e-01 3.192155424834719923e+00
4.000000000000000222e-01 3.172790377505731563e+00
4.199999999999999845e-01 3.153299055873001855e+00
4.400000000000000022e-01 3.133691854554045531e+00
4.600000000000000200e-01 3.113979000092101046e+00
4.799999999999999822e-01 3.094170528347564897e+00
5.000000000000000000e-01 3.074276290897916208e+00
5.200000000000000178e-01 3.054305933223855796e+00
5.400000000000000355e-01 3.034268902937103718e+00
5.600000000000000533e-01 3.014174428760862945e+00
5.799999999999999600e-01 2.994031530544157160e+00
5.999999999999999778e-01 2.973848999011354799e+00
6.199999999999999956e-01 2.953635407507632760e+00
6.400000000000000133e-01 2.933399092479775927e+00
6.600000000000000311e-01 2.913148166883748225e+00
6.800000000000000488e-01 2.892890501342045617e+00
7.000000000000000666e-01 2.872633739133653830e+00
7.199999999999999734e-01 2.852385277964447408e+00
7.399999999999999911e-01 2.832152286450666079e+00
7.600000000000000089e-01 2.811941686428420795e+00
7.800000000000000266e-01 2.791760170835271282e+00
8.000000000000000444e-01 2.771614186480451103e+00
8.200000000000000622e-01 2.751509953224436256e+00
8.399999999999999689e-01 2.731453447126496403e+00
8.599999999999999867e-01 2.711450420819839557e+00
8.800000000000000044e-01 2.691506386952502439e+00
9.000000000000000222e-01 2.671626639655016788e+00
9.200000000000000400e-01 2.651816238190049635e+00
9.400000000000000577e-01 2.632080029410701627e+00
9.599999999999999645e-01 2.612422631536998718e+00
9.799999999999999822e-01 2.592848457505422921e+00
1.000000000000000000e+00 2.573361698793020569e+00
1.020000000000000018e+00 2.553966349562610816e+00
1.040000000000000036e+00 2.534666190460196589e+00
1.060000000000000053e+00 2.515464813465029703e+00
1.080000000000000071e+00 2.496365605590840531e+00
1.100000000000000089e+00 2.477371774355431100e+00
1.120000000000000107e+00 2.458486331322612628e+00
1.140000000000000124e+00 2.439712118111918127e+00
1.159999999999999920e+00 2.421051789724144143e+00
1.179999999999999938e+00 2.402507841018171941e+00
1.199999999999999956e+00 2.384082589769869198e+00
1.219999999999999973e+00 2.365778203549425918e+00
1.239999999999999991e+00 2.347596682469755613e+00
1.260000000000000009e+00 2.329539886404249138e+00
1.280000000000000027e+00 2.311609517387639201e+00
1.300000000000000044e+00 2.293807147120309420e+00
1.320000000000000062e+00 2.276134198990800162e+00
1.340000000000000080e+00 2.258591975818899478e+00
1.360000000000000098e+00 2.241181641475231689e+00
1.380000000000000115e+00 2.223904248821129137e+00
1.400000000000000133e+00 2.206760720906293827e+00
1.419999999999999929e+00 2.189751879068816631e+00
1.439999999999999947e+00 2.172878423697445438e+00
1.459999999999999964e+00 2.156140962460038502e+00
1.479999999999999982e+00 2.139539990621719845e+00
1.500000000000000000e+00 2.123075919374612042e+00
1.520000000000000018e+00 2.106749055707732410e+00
1.540000000000000036e+00 2.090559630814881054e+00
1.560000000000000053e+00 2.074507779516024719e+00
1.580000000000000071e+00 2.058593568723845468e+00
1.600000000000000089e+00 2.042816976420021913e+00
1.620000000000000107e+00 2.027177920164113800e+00
1.640000000000000124e+00 2.011676235631120413e+00
1.660000000000000142e+00 1.996311705149199200e+00
1.679999999999999938e+00 1.981084035807657795e+00
1.699999999999999956e+00 1.965992888012343176e+00
1.719999999999999973e+00 1.951037853175473291e+00
1.739999999999999991e+00 1.936218482279532527e+00
1.760000000000000009e+00 1.921534263162380629e+00
1.780000000000000027e+00 1.906984649082142269e+00
1.800000000000000044e+00 1.892569035612577277e+00
1.820000000000000062e+00 1.878286789202833207e+00
1.840000000000000080e+00 1.864137223699444235e+00
1.860000000000000098e+00 1.850119628895894097e+00
1.880000000000000115e+00 1.836233246698593558e+00
1.900000000000000133e+00 1.822477299662073280e+00
1.919999999999999929e+00 1.808850966817137529e+00
1.939999999999999947e+00 1.795353412188149367e+00
1.959999999999999964e+00 1.781983760302112474e+00
1.979999999999999982e+00 1.768741124684937160e+00
2.000000000000000000e+00 1.755624583070699796e+00
2.020000000000000018e+00 1.742633205874062785e+00
2.040000000000000036e+00 1.729766031119156278e+00
2.060000000000000053e+00 1.717022092885490236e+00
2.080000000000000071e+00 1.704400395976074734e+00
2.100000000000000089e+00 1.691899944334197770e+00
2.120000000000000107e+00 1.679519715470388919e+00
2.140000000000000124e+00 1.667258688847364168e+00
2.160000000000000142e+00 1.655115820085392375e+00
2.180000000000000160e+00 1.643090069312583612e+00
2.200000000000000178e+00 1.631180375168025165e+00
2.220000000000000195e+00 1.619385683114391128e+00
2.240000000000000213e+00 1.607704919258032161e+00
2.260000000000000231e+00 1.596137018620645165e+00
2.280000000000000249e+00 1.584680898795180370e+00
2.300000000000000266e+00 1.573335488173041252e+00
2.319999999999999840e+00 1.562099699454403412e+00
2.339999999999999858e+00 1.550972457827091144e+00
2.359999999999999876e+00 1.539952674349558182e+00
2.379999999999999893e+00 1.529039274077258259e+00
2.399999999999999911e+00 1.518231169336182296e+00
2.419999999999999929e+00 1.507527287792233661e+00
2.439999999999999947e+00 1.496926545632830230e+00
2.459999999999999964e+00 1.486427875574432678e+00
2.479999999999999982e+00 1.476030199969369461e+00
2.500000000000000000e+00 1.465732458746346500e+00
2.520000000000000018e+00 1.455533582459241249e+00
2.540000000000000036e+00 1.445432520155095713e+00
2.560000000000000053e+00 1.435428212381262059e+00
2.580000000000000071e+00 1.425519618975067626e+00
2.600000000000000089e+00 1.415705692045286845e+00
2.620000000000000107e+00 1.405985403677380230e+00
2.640000000000000124e+00 1.396357718904909451e+00
2.660000000000000142e+00 1.386821623323939878e+00
2.680000000000000160e+00 1.377376096069662603e+00
2.700000000000000178e+00 1.368020137333278097e+00
2.720000000000000195e+00 1.358752741358725924e+00
2.740000000000000213e+00 1.349572923855111961e+00
2.760000000000000231e+00 1.340479695028113927e+00
2.780000000000000249e+00 1.331472086880772343e+00
2.800000000000000266e+00 1.322549126293803834e+00
2.819999999999999840e+00 1.313709862207348866e+00
2.839999999999999858e+00 1.304953338764111015e+00
2.859999999999999876e+00 1.296278622364470667e+00
2.879999999999999893e+00 1.287684774886029837e+00
2.899999999999999911e+00 1.279170880604321159e+00
2.919999999999999929e+00 1.270736019502085812e+00
2.939999999999999947e+00 1.262379294047580869e+00
2.959999999999999964e+00 1.254099802606638558e+00
2.979999999999999982e+00 1.245896666070481995e+00
3.000000000000000000e+00 1.237769001383298484e+00
3.020000000000000018e+00 1.229715948011343318e+00
3.040000000000000036e+00 1.221736641598514250e+00
3.060000000000000053e+00 1.213830240268373384e+00
3.080000000000000071e+00 1.205995898420003432e+00
3.100000000000000089e+00 1.198232792854465156e+00
3.120000000000000107e+00 1.190540096722948471e+00
3.140000000000000124e+00 1.182917005469120264e+00
3.160000000000000142e+00 1.175362710941360911e+00
3.180000000000000160e+00 1.167876427142377826e+00
3.200000000000000178e+00 1.160457364517084589e+00
3.220000000000000195e+00 1.153104755500804490e+00
3.240000000000000213e+00 1.145817828994151411e+00
3.260000000000000231e+00 1.138595835701082581e+00
3.280000000000000249e+00 1.131438022801952048e+00
3.300000000000000266e+00 1.124343659072631008e+00
3.320000000000000284e+00 1.117312009766699088e+00
3.339999999999999858e+00 1.110342361506845954e+00
3.359999999999999876e+00 1.103433997386979781e+00
3.379999999999999893e+00 1.096586221627077196e+00
3.399999999999999911e+00 1.089798334905841992e+00
3.419999999999999929e+00 1.083069658770162702e+00
3.439999999999999947e+00 1.076399511208758764e+00
3.459999999999999964e+00 1.069787230807430323e+00
3.479999999999999982e+00 1.063232152573956757e+00
3.500000000000000000e+00 1.056733631830328202e+00
3.520000000000000018e+00 1.050291020299007672e+00
3.540000000000000036e+00 1.043903689723350237e+00
3.560000000000000053e+00 1.037571008225191882e+00
3.580000000000000071e+00 1.031292363644666477e+00
3.600000000000000089e+00 1.025067140178946401e+00
3.620000000000000107e+00 1.018894741432716966e+00
3.640000000000000124e+00 1.012774567347725974e+00
3.660000000000000142e+00 1.006706036955216099e+00
3.680000000000000160e+00 1.000688565605809544e+00
3.700000000000000178e+00 9.947215874152135484e-01
3.720000000000000195e+00 9.888045328038561621e-01
3.740000000000000213e+00 9.829368506272470052e-01
3.760000000000000231e+00 9.771179860346039803e-01
3.780000000000000249e+00 9.713474022752983661e-01
3.800000000000000266e+00 9.656245588856240403e-01
3.820000000000000284e+00 9.599489331627977240e-01
3.839999999999999858e+00 9.543199986888802888e-01
3.859999999999999876e+00 9.487372464638715863e-01
3.879999999999999893e+00 9.432001637756657342e-01
3.899999999999999911e+00 9.377082549838497982e-01
3.919999999999999929e+00 9.322610207444569363e-01
3.939999999999999947e+00 9.268579784361243856e-01
3.959999999999999964e+00 9.214986417483116421e-01
3.979999999999999982e+00 9.161825407415322697e-01
4.000000000000000000e+00 9.109092018075873876e-01
4.020000000000000462e+00 9.056781673556659751e-01
4.040000000000000036e+00 9.004889761530077141e-01
4.060000000000000497e+00 8.953411826287520636e-01
4.080000000000000071e+00 8.902343376033534650e-01
4.099999999999999645e+00 8.851680072021158585e-01
4.120000000000000107e+00 8.801417539815641344e-01
4.139999999999999680e+00 8.751551554446621584e-01
4.160000000000000142e+00 8.702077855722905042e-01
4.179999999999999716e+00 8.652992329322151122e-01
4.200000000000000178e+00 8.604290826236544731e-01
4.219999999999999751e+00 8.555969339721839484e-01
4.240000000000000213e+00 8.508023828953040768e-01
4.259999999999999787e+00 8.460450391755012234e-01
4.280000000000000249e+00 8.413245092546348669e-01
4.299999999999999822e+00 8.366404130774529602e-01
4.320000000000000284e+00 8.319923673225355643e-01
4.339999999999999858e+00 8.273800018086344688e-01
4.360000000000000320e+00 8.228029431697985174e-01
4.379999999999999893e+00 8.182608308170105094e-01
4.400000000000000355e+00 8.137533010650110921e-01
4.419999999999999929e+00 8.092800026417690251e-01
4.440000000000000391e+00 8.048405812744595655e-01
4.459999999999999964e+00 8.004346947393617961e-01
4.480000000000000426e+00 7.960619979143739311e-01
4.500000000000000000e+00 7.917221573620009112e-01
4.520000000000000462e+00 7.874148368556806998e-01
4.540000000000000036e+00 7.831397114886279320e-01
4.560000000000000497e+00 7.788964536811635586e-01
4.580000000000000071e+00 7.746847468082349586e-01
4.600000000000000533e+00 7.705042716948670156e-01
4.620000000000000107e+00 7.663547197552478263e-01
4.639999999999999680e+00 7.622357799833541225e-01
4.660000000000000142e+00 7.581471515965663155e-01
4.679999999999999716e+00 7.540885315284140411e-01
4.700000000000000178e+00 7.500596265697677678e-01
4.719999999999999751e+00 7.460601413705966189e-01
4.740000000000000213e+00 7.420897900718322893e-01
4.759999999999999787e+00 7.381482848229617977e-01
4.780000000000000249e+00 7.342353468977200759e-01
4.799999999999999822e+00 7.303506957342741357e-01
4.820000000000000284e+00 7.264940595279958391e-01
4.839999999999999858e+00 7.226651648008886042e-01
4.860000000000000320e+00 7.188637464647411601e-01
4.879999999999999893e+00 7.150895379264302631e-01
4.900000000000000355e+00 7.113422806148046451e-01
4.919999999999999929e+00 7.076217146284121684e-01
4.940000000000000391e+00 7.039275877195326769e-01
4.959999999999999964e+00 7.002596464908288354e-01
4.980000000000000426e+00 6.966176448299953305e-01
5.000000000000000000e+00 6.930013356617699127e-01
5.020000000000000462e+00 6.894104788267408912e-01
5.040000000000000036e+00 6.858448333950775133e-01
5.060000000000000497e+00 6.823041649830943189e-01
5.080000000000000071e+00 6.787882386350303499e-01
5.100000000000000533e+00 6.752968255709899115e-01
5.120000000000000107e+00 6.718296966430523653e-01
5.139999999999999680e+00 6.683866285082855629e-01
5.160000000000000142e+00 6.649673976654030261e-01
5.179999999999999716e+00 6.615717860465810674e-01
5.200000000000000178e+00 6.581995756408458575e-01
5.219999999999999751e+00 6.548505534984778720e-01
5.240000000000000213e+00 6.515245069472600514e-01
5.259999999999999787e+00 6.482212280032866314e-01
5.280000000000000249e+00 6.449405091861702966e-01
5.299999999999999822e+00 6.416821473301279610e-01
5.320000000000000284e+00 6.384459400041850863e-01
5.339999999999999858e+00 6.352316887174521698e-01
5.360000000000000320e+00 6.320391959503398605e-01
5.379999999999999893e+00 6.288682677479566774e-01
5.400000000000000355e+00 6.257187113683360113e-01
5.419999999999999929e+00 6.225903372579135731e-01
5.440000000000000391e+00 6.194829573227199626e-01
5.459999999999999964e+00 6.163963862799399784e-01
5.480000000000000426e+00 6.133304405580009000e-01
5.500000000000000000e+00 6.102849390182424338e-01
5.520000000000000462e+00 6.072597024897896656e-01
5.540000000000000036e+00 6.042545538553987239e-01
5.560000000000000497e+00 6.012693182269913672e-01
5.580000000000000071e+00 5.983038223897476637e-01
5.600000000000000533e+00 5.953578956241620812e-01
5.620000000000000107e+00 5.924313685024769072e-01
5.639999999999999680e+00 5.895240743631053881e-01
5.660000000000000142e+00 5.866358474535212641e-01
5.679999999999999716e+00 5.837665250628627511e-01
5.700000000000000178e+00 5.809159450054069973e-01
5.719999999999999751e+00 5.780839484171859111e-01
5.740000000000000213e+00 5.752703765741745690e-01
5.759999999999999787e+00 5.724750743587161406e-01
5.780000000000000249e+00 5.696978864065745940e-01
5.799999999999999822e+00 5.669386612489805133e-01
5.820000000000000284e+00 5.641972467827012228e-01
5.839999999999999858e+00 5.614734950934826552e-01
5.860000000000000320e+00 5.587672572432994533e-01
5.879999999999999893e+00 5.560783887810136772e-01
5.900000000000000355e+00 5.534067438409440154e-01
5.919999999999999929e+00 5.507521813465310334e-01
5.940000000000000391e+00 5.481145584143831684e-01
5.959999999999999964e+00 5.454937372567678633e-01
5.980000000000000426e+00 5.428895778852713683e-01
6.000000000000000000e+00 5.403019457179295548e-01
6.020000000000000462e+00 5.377307035766311083e-01
6.040000000000000036e+00 5.351757200047276841e-01
6.060000000000000497e+00 5.326368605523038591e-01
6.080000000000000071e+00 5.301139968101062916e-01
6.100000000000000533e+00 5.276069969767751555e-01
6.120000000000000107e+00 5.251157356149744881e-01
6.140000000000000568e+00 5.226400834946706153e-01
6.160000000000000142e+00 5.201799180773356568e-01
6.179999999999999716e+00 5.177351126293386896e-01
6.200000000000000178e+00 5.153055474401507796e-01
6.219999999999999751e+00 5.128910981998717755e-01
6.240000000000000213e+00 5.104916479573781141e-01
6.259999999999999787e+00 5.081070747559953693e-01
6.280000000000000249e+00 5.057372643375670496e-01
6.299999999999999822e+00 5.033820970302407272e-01
6.320000000000000284e+00 5.010414612044702398e-01
6.339999999999999858e+00 4.987152394068471994e-01
6.360000000000000320e+00 4.964033225740925870e-01
6.379999999999999893e+00 4.941055954068359068e-01
6.400000000000000355e+00 4.918219513476790317e-01
6.419999999999999929e+00 4.895522771887708124e-01
6.440000000000000391e+00 4.872964688200920880e-01
6.459999999999999964e+00 4.850544150646409203e-01
6.480000000000000426e+00 4.828260142031127744e-01
6.500000000000000000e+00 4.806111570304461011e-01
6.520000000000000462e+00 4.784097441631510739e-01
6.540000000000000036e+00 4.762216683109262161e-01
6.560000000000000497e+00 4.740468323729177813e-01
6.580000000000000071e+00 4.718851309180505105e-01
6.600000000000000533e+00 4.697364690765898909e-01
6.620000000000000107e+00 4.676007432227696770e-01
6.640000000000000568e+00 4.654778606680653463e-01
6.660000000000000142e+00 4.633677195396359028e-01
6.679999999999999716e+00 4.612702292818137151e-01
6.700000000000000178e+00 4.591852897238187237e-01
6.719999999999999751e+00 4.571128123959965484e-01
6.740000000000000213e+00 4.550526987801970513e-01
6.759999999999999787e+00 4.530048624473937968e-01
6.780000000000000249e+00 4.509692064840454817e-01
6.799999999999999822e+00 4.489456464577925021e-01
6.820000000000000284e+00 4.469340870130161791e-01
6.839999999999999858e+00 4.449344456714338092e-01
6.860000000000000320e+00 4.429466285899869016e-01
6.879999999999999893e+00 4.409705552031978337e-01
6.900000000000000355e+00 4.390061331364659702e-01
6.919999999999999929e+00 4.370532836971403046e-01
6.940000000000000391e+00 4.351119159361972466e-01
6.959999999999999964e+00 4.331819529950780567e-01
6.980000000000000426e+00 4.312633053086282198e-01
7.000000000000000000e+00 4.293558978148624417e-01
7.020000000000000462e+00 4.274596422919342831e-01
7.040000000000000036e+00 4.255744654380763103e-01
7.060000000000000497e+00 4.237002803352858393e-01
7.080000000000000071e+00 4.218370154067935252e-01
7.100000000000000533e+00 4.199845850000459846e-01
7.120000000000000107e+00 4.181429192291584163e-01
7.140000000000000568e+00 4.163119336696485817e-01
7.160000000000000142e+00 4.144915600934649946e-01
7.179999999999999716e+00 4.126817152678255995e-01
7.200000000000000178e+00 4.108823325904961132e-01
7.219999999999999751e+00 4.090933299849663918e-01
7.240000000000000213e+00 4.073146424438114366e-01
7.259999999999999787e+00 4.055461890123066016e-01
7.280000000000000249e+00 4.037879062477944814e-01
7.299999999999999822e+00 4.020397142837263127e-01
7.320000000000000284e+00 4.003015512131189446e-01
7.339999999999999858e+00 3.985733382248763945e-01
7.360000000000000320e+00 3.968550149195119170e-01
7.379999999999999893e+00 3.951465035094682277e-01
7.400000000000000355e+00 3.934477450754684247e-01
7.419999999999999929e+00 3.917586628224042355e-01
7.440000000000000391e+00 3.900791992847822964e-01
7.459999999999999964e+00 3.884092786296162170e-01
7.480000000000000426e+00 3.867488448196086948e-01
7.500000000000000000e+00 3.850978229543344789e-01
7.520000000000000462e+00 3.834561583999153145e-01
7.540000000000000036e+00 3.818237771596398322e-01
7.560000000000000497e+00 3.802006259790688403e-01
7.580000000000000071e+00 3.785866317370581990e-01
7.600000000000000533e+00 3.769817425353877427e-01
7.620000000000000107e+00 3.753858861010087589e-01
7.640000000000000568e+00 3.737990118694544117e-01
7.660000000000000142e+00 3.722210483889570876e-01
7.679999999999999716e+00 3.706519464070556213e-01
7.700000000000000178e+00 3.690916352670609579e-01
7.719999999999999751e+00 3.675400670074804310e-01
7.740000000000000213e+00 3.659971717411254488e-01
7.759999999999999787e+00 3.644629027771191798e-01
7.780000000000000249e+00 3.629371909727608370e-01
7.799999999999999822e+00 3.614199908880996182e-01
7.820000000000000284e+00 3.599112341004951365e-01
7.839999999999999858e+00 3.584108764018840154e-01
7.860000000000000320e+00 3.569188500657765606e-01
7.879999999999999893e+00 3.554351120975933753e-01
