# Electrodo circular de radio 6 mm y espesor 710.0 um.
# Volumen de simulacion (convencion z,y,x):
# N: 1024 x 1024 x 1024 | voxelSize:  0.02mm x 0.02mm x 0.02mm | FOV:  20.48mm x 20.48mm x 20.48mm
# 
# z [mm]		 delta[ppm]
0.000000000000000000e+00 6.446087139763014839e+00
2.000000000000000042e-02 6.170644872811203996e+00
4.000000000000000083e-02 5.898952597080278970e+00
5.999999999999999778e-02 5.633586943689791404e+00
8.000000000000000167e-02 5.376755934343413479e+00
1.000000000000000056e-01 5.130212729963794516e+00
1.199999999999999956e-01 4.895228659766349466e+00
1.400000000000000133e-01 4.672611143493926811e+00
1.600000000000000033e-01 4.462754081671736373e+00
1.799999999999999933e-01 4.265705817438452563e+00
2.000000000000000111e-01 4.081243249019258279e+00
2.200000000000000011e-01 3.908942769099917225e+00
2.399999999999999911e-01 3.748243093267721537e+00
2.600000000000000089e-01 3.598497277940321926e+00
2.800000000000000266e-01 3.459013798762986092e+00
2.999999999999999889e-01 3.329087402222495218e+00
3.200000000000000067e-01 3.208021338447186732e+00
3.400000000000000244e-01 3.095142530257036118e+00
3.599999999999999867e-01 2.989811312728958281e+00
3.800000000000000044e-01 2.891427064573880212e+00
4.000000000000000222e-01 2.799430876864996698e+00
4.199999999999999845e-01 2.713306136067246577e+00
4.400000000000000022e-01 2.632577689614119976e+00
4.600000000000000200e-01 2.556810115349632095e+00
4.799999999999999822e-01 2.485605428859688715e+00
5.000000000000000000e-01 2.418600527373334419e+00
5.200000000000000178e-01 2.355464500051877685e+00
5.400000000000000355e-01 2.295895981412479081e+00
5.600000000000000533e-01 2.239620561355048167e+00
5.799999999999999600e-01 2.186388369473768023e+00
5.999999999999999778e-01 2.135971783040319760e+00
6.199999999999999956e-01 2.088163352075359747e+00
6.400000000000000133e-01 2.042773855939032934e+00
6.600000000000000311e-01 1.999630578881568699e+00
6.800000000000000488e-01 1.958575699524569336e+00
7.000000000000000666e-01 1.919464884329811660e+00
7.199999999999999734e-01 1.882165968604345485e+00
7.399999999999999911e-01 1.846557821613117323e+00
7.600000000000000089e-01 1.812529271952027621e+00
7.800000000000000266e-01 1.779978197453343736e+00
8.000000000000000444e-01 1.748810650376142029e+00
8.200000000000000622e-01 1.718940130070152783e+00
8.399999999999999689e-01 1.690286869407143344e+00
8.599999999999999867e-01 1.662777254610257494e+00
8.800000000000000044e-01 1.636343240774194907e+00
9.000000000000000222e-01 1.610921889661167672e+00
9.200000000000000400e-01 1.586454888273512553e+00
9.400000000000000577e-01 1.562888181078370575e+00
9.599999999999999645e-01 1.540171570716163840e+00
9.799999999999999822e-01 1.518258425870985473e+00
1.000000000000000000e+00 1.497105347541312304e+00
1.020000000000000018e+00 1.476671937638745380e+00
1.040000000000000036e+00 1.456920517638344847e+00
1.060000000000000053e+00 1.437815946085005514e+00
1.080000000000000071e+00 1.419325379238819407e+00
1.100000000000000089e+00 1.401418128117718709e+00
1.120000000000000107e+00 1.384065452869319701e+00
1.140000000000000124e+00 1.367240451911557297e+00
1.159999999999999920e+00 1.350917883514094697e+00
1.179999999999999938e+00 1.335074081115803279e+00
1.199999999999999956e+00 1.319686796893629666e+00
1.219999999999999973e+00 1.304735138530603411e+00
1.239999999999999991e+00 1.290199430644628276e+00
1.260000000000000009e+00 1.276061169218764224e+00
1.280000000000000027e+00 1.262302897551640379e+00
1.300000000000000044e+00 1.248908175303238721e+00
1.320000000000000062e+00 1.235861466320398394e+00
1.340000000000000080e+00 1.223148119835914649e+00
1.360000000000000098e+00 1.210754268004407219e+00
1.380000000000000115e+00 1.198666817257664663e+00
1.400000000000000133e+00 1.186873353831594091e+00
1.419999999999999929e+00 1.175362143649555380e+00
1.439999999999999947e+00 1.164122044415757840e+00
1.459999999999999964e+00 1.153142512694115052e+00
1.479999999999999982e+00 1.142413521437153134e+00
1.500000000000000000e+00 1.131925573164007659e+00
1.520000000000000018e+00 1.121669621973632180e+00
1.540000000000000036e+00 1.111637091916529263e+00
1.560000000000000053e+00 1.101819802740107379e+00
1.580000000000000071e+00 1.092209992702195542e+00
1.600000000000000089e+00 1.082800247404773764e+00
1.620000000000000107e+00 1.073583526422511314e+00
1.640000000000000124e+00 1.064553094720292803e+00
1.660000000000000142e+00 1.055702552571336383e+00
1.679999999999999938e+00 1.047025769117365224e+00
1.699999999999999956e+00 1.038516915134241492e+00
1.719999999999999973e+00 1.030170398394389508e+00
1.739999999999999991e+00 1.021980898905725299e+00
1.760000000000000009e+00 1.013943305770770520e+00
1.780000000000000027e+00 1.006052754581016950e+00
1.800000000000000044e+00 9.983045655427923437e-01
1.820000000000000062e+00 9.906942827553655295e-01
1.840000000000000080e+00 9.832176133899398485e-01
1.860000000000000098e+00 9.758704686184437316e-01
1.880000000000000115e+00 9.686489036910158612e-01
1.900000000000000133e+00 9.615491603143063726e-01
1.919999999999999929e+00 9.545676074769640085e-01
1.939999999999999947e+00 9.477007851031508112e-01
1.959999999999999964e+00 9.409453455233940389e-01
1.979999999999999982e+00 9.342980982512842925e-01
2.000000000000000000e+00 9.277559519931405374e-01
2.020000000000000018e+00 9.213159604148434267e-01
2.040000000000000036e+00 9.149752646239684983e-01
2.060000000000000053e+00 9.087311398095258008e-01
2.080000000000000071e+00 9.025809381208419468e-01
2.100000000000000089e+00 8.965221360765299741e-01
2.120000000000000107e+00 8.905522777994202555e-01
2.140000000000000124e+00 8.846690231024494366e-01
2.160000000000000142e+00 8.788700910258031573e-01
2.180000000000000160e+00 8.731533085172356046e-01
2.200000000000000178e+00 8.675165542489867709e-01
2.220000000000000195e+00 8.619578078183423031e-01
2.240000000000000213e+00 8.564750938061195251e-01
2.260000000000000231e+00 8.510665314304876050e-01
2.280000000000000249e+00 8.457302788376774849e-01
2.300000000000000266e+00 8.404645831482517870e-01
2.319999999999999840e+00 8.352677249530368053e-01
2.339999999999999858e+00 8.301380686963658606e-01
2.359999999999999876e+00 8.250740073773940031e-01
2.379999999999999893e+00 8.200740132194509480e-01
2.399999999999999911e+00 8.151365825578374968e-01
2.419999999999999929e+00 8.102602867484692828e-01
2.439999999999999947e+00 8.054437172491956121e-01
2.459999999999999964e+00 8.006855367244454236e-01
2.479999999999999982e+00 7.959844243069877923e-01
2.500000000000000000e+00 7.913391268583732652e-01
2.520000000000000018e+00 7.867484044231914941e-01
2.540000000000000036e+00 7.822110816078581275e-01
2.560000000000000053e+00 7.777259932184558133e-01
2.580000000000000071e+00 7.732920357227928143e-01
2.600000000000000089e+00 7.689081130875338177e-01
2.620000000000000107e+00 7.645731882906572352e-01
2.640000000000000124e+00 7.602862293519138115e-01
2.660000000000000142e+00 7.560462608646539850e-01
2.680000000000000160e+00 7.518523102379953693e-01
2.700000000000000178e+00 7.477034592187624673e-01
2.720000000000000195e+00 7.435987903414671418e-01
2.740000000000000213e+00 7.395374384125859013e-01
2.760000000000000231e+00 7.355185371886416856e-01
2.780000000000000249e+00 7.315412707965297523e-01
2.800000000000000266e+00 7.276048206371614757e-01
2.819999999999999840e+00 7.237084167167244786e-01
2.839999999999999858e+00 7.198512847975706563e-01
2.859999999999999876e+00 7.160326976165246604e-01
2.879999999999999893e+00 7.122519222813461504e-01
2.899999999999999911e+00 7.085082713532089294e-01
2.919999999999999929e+00 7.048010505113645463e-01
2.939999999999999947e+00 7.011296094779356780e-01
2.959999999999999964e+00 6.974932899495981387e-01
2.979999999999999982e+00 6.938914763436986322e-01
3.000000000000000000e+00 6.903235440201995754e-01
3.020000000000000018e+00 6.867889098290573813e-01
3.040000000000000036e+00 6.832869806214001418e-01
3.060000000000000053e+00 6.798172035787753975e-01
3.080000000000000071e+00 6.763790150372583909e-01
3.100000000000000089e+00 6.729718905799982887e-01
3.120000000000000107e+00 6.695952941731793118e-01
3.140000000000000124e+00 6.662487280039148807e-01
3.160000000000000142e+00 6.629316819519631698e-01
3.180000000000000160e+00 6.596436831557758174e-01
3.200000000000000178e+00 6.563842458186361917e-01
3.220000000000000195e+00 6.531529204861905580e-01
3.240000000000000213e+00 6.499492442110040846e-01
3.260000000000000231e+00 6.467727895255941384e-01
3.280000000000000249e+00 6.436231149637036131e-01
3.300000000000000266e+00 6.404998137133074421e-01
3.320000000000000284e+00 6.374024645185916160e-01
3.339999999999999858e+00 6.343306799980694688e-01
3.359999999999999876e+00 6.312840579250711404e-01
3.379999999999999893e+00 6.282622291964891081e-01
3.399999999999999911e+00 6.252648095156995156e-01
3.419999999999999929e+00 6.222914469980893593e-01
3.439999999999999947e+00 6.193417742536281301e-01
3.459999999999999964e+00 6.164154556156933307e-01
3.479999999999999982e+00 6.135121396470611943e-01
3.500000000000000000e+00 6.106315059791411759e-01
3.520000000000000018e+00 6.077732182379587123e-01
3.540000000000000036e+00 6.049369704812279647e-01
3.560000000000000053e+00 6.021224405679281855e-01
3.580000000000000071e+00 5.993293361812023212e-01
3.600000000000000089e+00 5.965573486374107226e-01
3.620000000000000107e+00 5.938061984831509710e-01
3.640000000000000124e+00 5.910755897671722270e-01
3.660000000000000142e+00 5.883652552003728609e-01
3.680000000000000160e+00 5.856749108857011166e-01
3.700000000000000178e+00 5.830043010302248252e-01
3.720000000000000195e+00 5.803531531562193813e-01
3.740000000000000213e+00 5.777212223549482717e-01
3.760000000000000231e+00 5.751082469732841096e-01
3.780000000000000249e+00 5.725139923990919533e-01
3.800000000000000266e+00 5.699382072463352600e-01
3.820000000000000284e+00 5.673806666624644501e-01
3.839999999999999858e+00 5.648411290055783684e-01
3.859999999999999876e+00 5.623193786644374859e-01
3.879999999999999893e+00 5.598151832503963643e-01
3.899999999999999911e+00 5.573283359211826937e-01
3.919999999999999929e+00 5.548586130803506711e-01
3.939999999999999947e+00 5.524058161961615809e-01
3.959999999999999964e+00 5.499697300310523174e-01
3.979999999999999982e+00 5.475501639474291693e-01
4.000000000000000000e+00 5.451469106591075864e-01
4.020000000000000462e+00 5.427597870160300042e-01
4.040000000000000036e+00 5.403885932999253905e-01
4.060000000000000497e+00 5.380331534804569937e-01
4.080000000000000071e+00 5.356932750462204407e-01
4.099999999999999645e+00 5.333687887249803916e-01
4.120000000000000107e+00 5.310595088720567736e-01
4.139999999999999680e+00 5.287652726477680698e-01
4.160000000000000142e+00 5.264859009535270973e-01
4.179999999999999716e+00 5.242212370597590931e-01
4.200000000000000178e+00 5.219711081115468998e-01
4.219999999999999751e+00 5.197353632007895019e-01
4.240000000000000213e+00 5.175138354308558286e-01
4.259999999999999787e+00 5.153063794268479825e-01
4.280000000000000249e+00 5.131128339809575278e-01
4.299999999999999822e+00 5.109330589951538437e-01
4.320000000000000284e+00 5.087668986958816530e-01
4.339999999999999858e+00 5.066142180036180553e-01
4.360000000000000320e+00 5.044748663384432952e-01
4.379999999999999893e+00 5.023487134113547858e-01
4.400000000000000355e+00 5.002356136085159832e-01
4.419999999999999929e+00 4.981354411993164644e-01
4.440000000000000391e+00 4.960480553206990106e-01
4.459999999999999964e+00 4.939733345973810197e-01
4.480000000000000426e+00 4.919111427132773495e-01
4.500000000000000000e+00 4.898613624393635124e-01
4.520000000000000462e+00 4.878238618134858040e-01
4.540000000000000036e+00 4.857985275718100238e-01
4.560000000000000497e+00 4.837852319232032738e-01
4.580000000000000071e+00 4.817838653802601900e-01
4.600000000000000533e+00 4.797943041494658889e-01
4.620000000000000107e+00 4.778164423582071385e-01
4.639999999999999680e+00 4.758501600461222947e-01
4.660000000000000142e+00 4.738953547845614067e-01
4.679999999999999716e+00 4.719519102902553498e-01
4.700000000000000178e+00 4.700197274341054166e-01
4.719999999999999751e+00 4.680986934617856199e-01
4.740000000000000213e+00 4.661887123887694662e-01
4.759999999999999787e+00 4.642896748489747094e-01
4.780000000000000249e+00 4.624014878733264666e-01
4.799999999999999822e+00 4.605240453502945086e-01
4.820000000000000284e+00 4.586572571853274050e-01
4.839999999999999858e+00 4.568010203943677627e-01
4.860000000000000320e+00 4.549552476418825542e-01
4.879999999999999893e+00 4.531198389504389468e-01
4.900000000000000355e+00 4.512947096150554671e-01
4.919999999999999929e+00 4.494797625499525884e-01
4.940000000000000391e+00 4.476749155773430133e-01
4.959999999999999964e+00 4.458800743936821576e-01
4.980000000000000426e+00 4.440951592309814733e-01
5.000000000000000000e+00 4.423200784637447702e-01
5.020000000000000462e+00 4.405547546412885707e-01
5.040000000000000036e+00 4.387990987169229085e-01
5.060000000000000497e+00 4.370530354497443870e-01
5.080000000000000071e+00 4.353164782773116803e-01
5.100000000000000533e+00 4.335893540857219675e-01
5.120000000000000107e+00 4.318715787066410017e-01
5.139999999999999680e+00 4.301630810544366801e-01
5.160000000000000142e+00 4.284637792689197644e-01
5.179999999999999716e+00 4.267736042186839329e-01
5.200000000000000178e+00 4.250924762696810522e-01
5.219999999999999751e+00 4.234203281538487240e-01
5.240000000000000213e+00 4.217570823850256279e-01
5.259999999999999787e+00 4.201026734922984063e-01
5.280000000000000249e+00 4.184570260626775395e-01
5.299999999999999822e+00 4.168200763385377372e-01
5.320000000000000284e+00 4.151917509087091895e-01
5.339999999999999858e+00 4.135719876697428465e-01
5.360000000000000320e+00 4.119607151441227466e-01
5.379999999999999893e+00 4.103578728049842583e-01
5.400000000000000355e+00 4.087633910433289275e-01
5.419999999999999929e+00 4.071772108561508285e-01
5.440000000000000391e+00 4.055992644406880565e-01
5.459999999999999964e+00 4.040294942458305671e-01
5.480000000000000426e+00 4.024678342154970889e-01
5.500000000000000000e+00 4.009142282035325633e-01
5.520000000000000462e+00 3.993686118435564869e-01
5.540000000000000036e+00 3.978309303274454312e-01
5.560000000000000497e+00 3.963011209239985511e-01
5.580000000000000071e+00 3.947791301214245152e-01
5.600000000000000533e+00 3.932648967715078325e-01
5.620000000000000107e+00 3.917583685963836326e-01
5.639999999999999680e+00 3.902594859808454220e-01
5.660000000000000142e+00 3.887681978440205577e-01
5.679999999999999716e+00 3.872844460558331203e-01
5.700000000000000178e+00 3.858081806740558117e-01
5.719999999999999751e+00 3.843393450078776974e-01
5.740000000000000213e+00 3.828778902211137369e-01
5.759999999999999787e+00 3.814237610182503735e-01
5.780000000000000249e+00 3.799769096144405833e-01
5.799999999999999822e+00 3.785372820673198468e-01
5.820000000000000284e+00 3.771048316147346258e-01
5.839999999999999858e+00 3.756795056270400002e-01
5.860000000000000320e+00 3.742612583133396176e-01
5.879999999999999893e+00 3.728500383179371158e-01
5.900000000000000355e+00 3.714458007961570774e-01
5.919999999999999929e+00 3.700484956290381322e-01
5.940000000000000391e+00 3.686580788696310340e-01
5.959999999999999964e+00 3.672745015999976381e-01
5.980000000000000426e+00 3.658977207491797001e-01
6.000000000000000000e+00 3.645276885659740618e-01
6.020000000000000462e+00 3.631643628095601040e-01
6.040000000000000036e+00 3.618076968625374423e-01
6.060000000000000497e+00 3.604576492955221534e-01
6.080000000000000071e+00 3.591141745932865392e-01
6.100000000000000533e+00 3.577772320943966577e-01
6.120000000000000107e+00 3.564467773554021446e-01
6.140000000000000568e+00 3.551227704669080443e-01
6.160000000000000142e+00 3.538051680280293598e-01
6.179999999999999716e+00 3.524939308400464322e-01
6.200000000000000178e+00 3.511890165165603150e-01
6.219999999999999751e+00 3.498903865561798221e-01
6.240000000000000213e+00 3.485979995599898795e-01
6.259999999999999787e+00 3.473118176844703919e-01
6.280000000000000249e+00 3.460318004922184887e-01
6.299999999999999822e+00 3.447579107866110548e-01
6.320000000000000284e+00 3.434901090667750734e-01
6.339999999999999858e+00 3.422283587452274456e-01
6.360000000000000320e+00 3.409726212335823514e-01
6.379999999999999893e+00 3.397228605447166760e-01
6.400000000000000355e+00 3.384790389795973575e-01
6.419999999999999929e+00 3.372411211152256394e-01
6.440000000000000391e+00 3.360090701196429275e-01
6.459999999999999964e+00 3.347828511272311625e-01
6.480000000000000426e+00 3.335624281516635370e-01
6.500000000000000000e+00 3.323477668498210913e-01
6.520000000000000462e+00 3.311388320603528834e-01
6.540000000000000036e+00 3.299355899577827711e-01
6.560000000000000497e+00 3.287380061858403701e-01
6.580000000000000071e+00 3.275460474030191249e-01
6.600000000000000533e+00 3.263596800389642616e-01
6.620000000000000107e+00 3.251788712330430653e-01
6.640000000000000568e+00 3.240035881823442043e-01
6.660000000000000142e+00 3.228337984745022760e-01
6.679999999999999716e+00 3.216694700562484077e-01
6.700000000000000178e+00 3.205105709620314491e-01
6.719999999999999751e+00 3.193570698710639366e-01
6.740000000000000213e+00 3.182089352329535714e-01
6.759999999999999787e+00 3.170661364428457030e-01
6.780000000000000249e+00 3.159286423655870979e-01
6.799999999999999822e+00 3.147964230963068433e-01
6.820000000000000284e+00 3.136694478842566580e-01
6.839999999999999858e+00 3.125476875091663942e-01
6.860000000000000320e+00 3.114311116062146723e-01
6.879999999999999893e+00 3.103196916248862625e-01
6.900000000000000355e+00 3.092133975561854875e-01
6.919999999999999929e+00 3.081122015050358764e-01
6.940000000000000391e+00 3.070160738211439866e-01
6.959999999999999964e+00 3.059249872510548252e-01
6.980000000000000426e+00 3.048389124736980427e-01
7.000000000000000000e+00 3.037578228639127853e-01
7.020000000000000462e+00 3.026816894340084163e-01
7.040000000000000036e+00 3.016104861742511800e-01
7.060000000000000497e+00 3.005441844013885255e-01
7.080000000000000071e+00 2.994827587086926757e-01
7.100000000000000533e+00 2.984261807227180374e-01
7.120000000000000107e+00 2.973744256277588427e-01
7.140000000000000568e+00 2.963274653316820273e-01
7.160000000000000142e+00 2.952852755982328659e-01
7.179999999999999716e+00 2.942478286231072770e-01
7.200000000000000178e+00 2.932151007383279051e-01
7.219999999999999751e+00 2.921870643993022543e-01
7.240000000000000213e+00 2.911636964955453544e-01
7.259999999999999787e+00 2.901449697497853752e-01
7.280000000000000249e+00 2.891308615986102337e-01
7.299999999999999822e+00 2.881213450042525714e-01
7.320000000000000284e+00 2.871163979403148492e-01
7.339999999999999858e+00 2.861159936171879248e-01
7.360000000000000320e+00 2.851201105357752397e-01
7.379999999999999893e+00 2.841287221270467622e-01
7.400000000000000355e+00 2.831418074098265847e-01
7.419999999999999929e+00 2.821593400453066280e-01
7.440000000000000391e+00 2.811812995611723265e-01
7.459999999999999964e+00 2.802076598214365277e-01
7.480000000000000426e+00 2.792384008538952855e-01
7.500000000000000000e+00 2.782734967359832834e-01
7.520000000000000462e+00 2.773129279871530684e-01
7.540000000000000036e+00 2.763566688709819807e-01
7.560000000000000497e+00 2.754047003904209756e-01
7.580000000000000071e+00 2.744569970067001208e-01
7.600000000000000533e+00 2.735135401983836423e-01
7.620000000000000107e+00 2.725743045971390499e-01
7.640000000000000568e+00 2.716392721495355933e-01
7.660000000000000142e+00 2.707084176700816913e-01
7.679999999999999716e+00 2.697817235659973334e-01
7.700000000000000178e+00 2.688591648074211693e-01
7.719999999999999751e+00 2.679407242551284929e-01
7.740000000000000213e+00 2.670263770481516308e-01
7.759999999999999787e+00 2.661161064939697174e-01
7.780000000000000249e+00 2.652098878732593312e-01
7.799999999999999822e+00 2.643077049335861850e-01
7.820000000000000284e+00 2.634095331113711080e-01
7.839999999999999858e+00 2.625153565878799999e-01
7.860000000000000320e+00 2.616251509279427512e-01
7.879999999999999893e+00 2.607389007403654313e-01
