# Electrodo circular de radio 6 mm y espesor 710.0 um.
# Volumen de simulacion (convencion z,y,x):
# N: 1024 x 1024 x 1024 | voxelSize:  0.02mm x 0.02mm x 0.02mm | FOV:  20.48mm x 20.48mm x 20.48mm
# 
# z [mm]		 delta[ppm]
0.000000000000000000e+00 2.411472432704335755e+00
2.000000000000000042e-02 2.408842294704316878e+00
4.000000000000000083e-02 2.406132523594453954e+00
5.999999999999999778e-02 2.403343589998927055e+00
8.000000000000000167e-02 2.400475985233738285e+00
1.000000000000000056e-01 2.397530218440564020e+00
1.199999999999999956e-01 2.394506805858455767e+00
1.400000000000000133e-01 2.391406278449497602e+00
1.600000000000000033e-01 2.388229176328928283e+00
1.799999999999999933e-01 2.384976053427383391e+00
2.000000000000000111e-01 2.381647472796371012e+00
2.200000000000000011e-01 2.378244010865946390e+00
2.399999999999999911e-01 2.374766252695434510e+00
2.600000000000000089e-01 2.371214796326988505e+00
2.800000000000000266e-01 2.367590247884548749e+00
2.999999999999999889e-01 2.363893226071563269e+00
3.200000000000000067e-01 2.360124357114296245e+00
3.400000000000000244e-01 2.356284279420941541e+00
3.599999999999999867e-01 2.352373638339032347e+00
3.800000000000000044e-01 2.348393090984596920e+00
4.000000000000000222e-01 2.344343300828361620e+00
4.199999999999999845e-01 2.340224942697078259e+00
4.400000000000000022e-01 2.336038697171832990e+00
4.600000000000000200e-01 2.331785255764055265e+00
4.799999999999999822e-01 2.327465315140075930e+00
5.000000000000000000e-01 2.323079582470733762e+00
5.200000000000000178e-01 2.318628769472705908e+00
5.400000000000000355e-01 2.314113597931682698e+00
5.600000000000000533e-01 2.309534793572605604e+00
5.799999999999999600e-01 2.304893091754244061e+00
5.999999999999999778e-01 2.300189231163058068e+00
6.199999999999999956e-01 2.295423959677841186e+00
6.400000000000000133e-01 2.290598027897698064e+00
6.600000000000000311e-01 2.285712195174036676e+00
6.800000000000000488e-01 2.280767222970064623e+00
7.000000000000000666e-01 2.275763881057979443e+00
7.199999999999999734e-01 2.270702940719283358e+00
7.399999999999999911e-01 2.265585181104117662e+00
7.600000000000000089e-01 2.260411382271560132e+00
7.800000000000000266e-01 2.255182331708414978e+00
8.000000000000000444e-01 2.249898817217971914e+00
8.200000000000000622e-01 2.244561633594861494e+00
8.399999999999999689e-01 2.239171575362744804e+00
8.599999999999999867e-01 2.233729443602123332e+00
8.800000000000000044e-01 2.228236038544829434e+00
9.000000000000000222e-01 2.222692166551114124e+00
9.200000000000000400e-01 2.217098632562384264e+00
9.400000000000000577e-01 2.211456247224113714e+00
9.599999999999999645e-01 2.205765819204214662e+00
9.799999999999999822e-01 2.200028162457873915e+00
1.000000000000000000e+00 2.194244088413769056e+00
1.020000000000000018e+00 2.188414413376990719e+00
1.040000000000000036e+00 2.182539950590225430e+00
1.060000000000000053e+00 2.176621517770624514e+00
1.080000000000000071e+00 2.170659929048718517e+00
1.100000000000000089e+00 2.164656002635117815e+00
1.120000000000000107e+00 2.158610552644073532e+00
1.140000000000000124e+00 2.152524396885598712e+00
1.159999999999999920e+00 2.146398348576938897e+00
1.179999999999999938e+00 2.140233224255719602e+00
1.199999999999999956e+00 2.134029835386089591e+00
1.219999999999999973e+00 2.127788996388244591e+00
1.239999999999999991e+00 2.121511516142895015e+00
1.260000000000000009e+00 2.115198206132530956e+00
1.280000000000000027e+00 2.108849871850857927e+00
1.300000000000000044e+00 2.102467321050912386e+00
1.320000000000000062e+00 2.096051355063490274e+00
1.340000000000000080e+00 2.089602777147198331e+00
1.360000000000000098e+00 2.083122383722460835e+00
1.380000000000000115e+00 2.076610972818399681e+00
1.400000000000000133e+00 2.070069335226726981e+00
1.419999999999999929e+00 2.063498263040302927e+00
1.439999999999999947e+00 2.056898540733469893e+00
1.459999999999999964e+00 2.050270953786953676e+00
1.479999999999999982e+00 2.043616279699212335e+00
1.500000000000000000e+00 2.036935296692302888e+00
1.520000000000000018e+00 2.030228774660791213e+00
1.540000000000000036e+00 2.023497483953023757e+00
1.560000000000000053e+00 2.016742186262411973e+00
1.580000000000000071e+00 2.009963643478522854e+00
1.600000000000000089e+00 2.003162608527278898e+00
1.620000000000000107e+00 1.996339834286111836e+00
1.640000000000000124e+00 1.989496064378104334e+00
1.660000000000000142e+00 1.982632042145402673e+00
1.679999999999999938e+00 1.975748501403864266e+00
1.699999999999999956e+00 1.968846175468788262e+00
1.719999999999999973e+00 1.961925787875289817e+00
1.739999999999999991e+00 1.954988061450346093e+00
1.760000000000000009e+00 1.948033709005498659e+00
1.780000000000000027e+00 1.941063442449066478e+00
1.800000000000000044e+00 1.934077963456600990e+00
1.820000000000000062e+00 1.927077972617076362e+00
1.840000000000000080e+00 1.920064160087738170e+00
1.860000000000000098e+00 1.913037214767953742e+00
1.880000000000000115e+00 1.905997814944035085e+00
1.900000000000000133e+00 1.898946637484399957e+00
1.919999999999999929e+00 1.891884348481042366e+00
1.939999999999999947e+00 1.884811612459536656e+00
1.959999999999999964e+00 1.877729083022913414e+00
1.979999999999999982e+00 1.870637412069949823e+00
2.000000000000000000e+00 1.863537240448209342e+00
2.020000000000000018e+00 1.856429207174008278e+00
2.040000000000000036e+00 1.849313940100498099e+00
2.060000000000000053e+00 1.842192065132622902e+00
2.080000000000000071e+00 1.835064196917058688e+00
2.100000000000000089e+00 1.827930948045389803e+00
2.120000000000000107e+00 1.820792919771954566e+00
2.140000000000000124e+00 1.813650711198400822e+00
2.160000000000000142e+00 1.806504910026327737e+00
2.180000000000000160e+00 1.799356101716297118e+00
2.200000000000000178e+00 1.792204860281463752e+00
2.220000000000000195e+00 1.785051757414082729e+00
2.240000000000000213e+00 1.777897353327077878e+00
2.260000000000000231e+00 1.770742205841005168e+00
2.280000000000000249e+00 1.763586861279875961e+00
2.300000000000000266e+00 1.756431863511488167e+00
2.319999999999999840e+00 1.749277744904537357e+00
2.339999999999999858e+00 1.742125035315151838e+00
2.359999999999999876e+00 1.734974253111746245e+00
2.379999999999999893e+00 1.727825914100558524e+00
2.399999999999999911e+00 1.720680522625336550e+00
2.419999999999999929e+00 1.713538580424613489e+00
2.439999999999999947e+00 1.706400577812817732e+00
2.459999999999999964e+00 1.699267002461955167e+00
2.479999999999999982e+00 1.692138330671330460e+00
2.500000000000000000e+00 1.685015036066264571e+00
2.520000000000000018e+00 1.677897580963125579e+00
2.540000000000000036e+00 1.670786424977672491e+00
2.560000000000000053e+00 1.663682016492651794e+00
2.580000000000000071e+00 1.656584801168292209e+00
2.600000000000000089e+00 1.649495213519287073e+00
2.620000000000000107e+00 1.642413685319942918e+00
2.640000000000000124e+00 1.635340637297879374e+00
2.660000000000000142e+00 1.628276487426266517e+00
2.680000000000000160e+00 1.621221642741186297e+00
2.700000000000000178e+00 1.614176507513364278e+00
2.720000000000000195e+00 1.607141475196596447e+00
2.740000000000000213e+00 1.600116936471333018e+00
2.760000000000000231e+00 1.593103271331231197e+00
2.780000000000000249e+00 1.586100856990916741e+00
2.800000000000000266e+00 1.579110060118130932e+00
2.819999999999999840e+00 1.572131244597968269e+00
2.839999999999999858e+00 1.565164763917768598e+00
2.859999999999999876e+00 1.558210968780082473e+00
2.879999999999999893e+00 1.551270199647868164e+00
2.899999999999999911e+00 1.544342794198393820e+00
2.919999999999999929e+00 1.537429080036015749e+00
2.939999999999999947e+00 1.530529381979165882e+00
2.959999999999999964e+00 1.523644014948361214e+00
2.979999999999999982e+00 1.516773291078442165e+00
3.000000000000000000e+00 1.509917512789141769e+00
3.020000000000000018e+00 1.503076979714704109e+00
3.040000000000000036e+00 1.496251981964718869e+00
3.060000000000000053e+00 1.489442806863197521e+00
3.080000000000000071e+00 1.482649732407138599e+00
3.100000000000000089e+00 1.475873033807100887e+00
3.120000000000000107e+00 1.469112977151282751e+00
3.140000000000000124e+00 1.462369825739626483e+00
3.160000000000000142e+00 1.455643833960948763e+00
3.180000000000000160e+00 1.448935253412560131e+00
3.200000000000000178e+00 1.442244326998309623e+00
3.220000000000000195e+00 1.435571294825707778e+00
3.240000000000000213e+00 1.428916388532472936e+00
3.260000000000000231e+00 1.422279836953111110e+00
3.280000000000000249e+00 1.415661860681912243e+00
3.300000000000000266e+00 1.409062677500883654e+00
3.320000000000000284e+00 1.402482497186902322e+00
3.339999999999999858e+00 1.395921526692892156e+00
3.359999999999999876e+00 1.389379965207128809e+00
3.379999999999999893e+00 1.382858009079530381e+00
3.399999999999999911e+00 1.376355847140904975e+00
3.419999999999999929e+00 1.369873665366176274e+00
3.439999999999999947e+00 1.363411642461630047e+00
3.459999999999999964e+00 1.356969954256936894e+00
3.479999999999999982e+00 1.350548769568225449e+00
3.500000000000000000e+00 1.344148254310671309e+00
3.520000000000000018e+00 1.337768567645562845e+00
3.540000000000000036e+00 1.331409865805237125e+00
3.560000000000000053e+00 1.325072298532037118e+00
3.580000000000000071e+00 1.318756012607328110e+00
3.600000000000000089e+00 1.312461148590580828e+00
3.620000000000000107e+00 1.306187844044194302e+00
3.640000000000000124e+00 1.299936230580663876e+00
3.660000000000000142e+00 1.293706436774936686e+00
3.680000000000000160e+00 1.287498585527935946e+00
3.700000000000000178e+00 1.281312796658098163e+00
3.720000000000000195e+00 1.275149184589338791e+00
3.740000000000000213e+00 1.269007860613436955e+00
3.760000000000000231e+00 1.262888930910738949e+00
3.780000000000000249e+00 1.256792498475048259e+00
3.800000000000000266e+00 1.250718661475185733e+00
3.820000000000000284e+00 1.244667514833992517e+00
3.839999999999999858e+00 1.238639148939150614e+00
3.859999999999999876e+00 1.232633650867880570e+00
3.879999999999999893e+00 1.226651103455206338e+00
3.899999999999999911e+00 1.220691586155921549e+00
3.919999999999999929e+00 1.214755174478752586e+00
3.939999999999999947e+00 1.208841940477133781e+00
3.959999999999999964e+00 1.202951952557519855e+00
3.979999999999999982e+00 1.197085275590498821e+00
4.000000000000000000e+00 1.191241971101771879e+00
4.020000000000000462e+00 1.185422096995084162e+00
4.040000000000000036e+00 1.179625708134187212e+00
4.060000000000000497e+00 1.173852855669096140e+00
4.080000000000000071e+00 1.168103588017574967e+00
4.099999999999999645e+00 1.162377949786185249e+00
4.120000000000000107e+00 1.156675983159670018e+00
4.139999999999999680e+00 1.150997726408218957e+00
4.160000000000000142e+00 1.145343215693394479e+00
4.179999999999999716e+00 1.139712483153014100e+00
4.200000000000000178e+00 1.134105559132043473e+00
4.219999999999999751e+00 1.128522469836502173e+00
4.240000000000000213e+00 1.122963239998009843e+00
4.259999999999999787e+00 1.117427890088060094e+00
4.280000000000000249e+00 1.111916439424712522e+00
4.299999999999999822e+00 1.106428902938602743e+00
4.320000000000000284e+00 1.100965294730515520e+00
4.339999999999999858e+00 1.095525624380408347e+00
4.360000000000000320e+00 1.090109900964476353e+00
4.379999999999999893e+00 1.084718128898463085e+00
4.400000000000000355e+00 1.079350312422988845e+00
4.419999999999999929e+00 1.074006450972448068e+00
4.440000000000000391e+00 1.068686544137199546e+00
4.459999999999999964e+00 1.063390586549302075e+00
4.480000000000000426e+00 1.058118573330446566e+00
4.500000000000000000e+00 1.052870494485682373e+00
4.520000000000000462e+00 1.047646340845815427e+00
4.540000000000000036e+00 1.042446097960339824e+00
4.560000000000000497e+00 1.037269752543172219e+00
4.580000000000000071e+00 1.032117285855945088e+00
4.600000000000000533e+00 1.026988680665861464e+00
4.620000000000000107e+00 1.021883914110458536e+00
4.639999999999999680e+00 1.016802965176575091e+00
4.660000000000000142e+00 1.011745807037674361e+00
4.679999999999999716e+00 1.006712415062740007e+00
4.700000000000000178e+00 1.001702758617236677e+00
4.719999999999999751e+00 9.967168096109924047e-01
4.740000000000000213e+00 9.917545337537987393e-01
4.759999999999999787e+00 9.868158996511955383e-01
4.780000000000000249e+00 9.819008695057154235e-01
4.799999999999999822e+00 9.770094087696826746e-01
4.820000000000000284e+00 9.721414762830633549e-01
4.839999999999999858e+00 9.672970344922519059e-01
4.860000000000000320e+00 9.624760390154716294e-01
4.879999999999999893e+00 9.576784494367162059e-01
4.900000000000000355e+00 9.529042182896061419e-01
4.919999999999999929e+00 9.481533024355458528e-01
4.940000000000000391e+00 9.434256514568816199e-01
4.959999999999999964e+00 9.387212196285392718e-01
4.980000000000000426e+00 9.340399537113107664e-01
5.000000000000000000e+00 9.293818055260968380e-01
5.020000000000000462e+00 9.247467191381192331e-01
5.040000000000000036e+00 9.201346440430971940e-01
5.060000000000000497e+00 9.155455217331284201e-01
5.080000000000000071e+00 9.109792995040159047e-01
5.100000000000000533e+00 9.064359163935347130e-01
5.120000000000000107e+00 9.019153176193199783e-01
5.139999999999999680e+00 8.974174398801739727e-01
5.160000000000000142e+00 8.929422264338284787e-01
5.179999999999999716e+00 8.884896117519207603e-01
5.200000000000000178e+00 8.840595372471226066e-01
5.219999999999999751e+00 8.796519352723669583e-01
5.240000000000000213e+00 8.752667455067358881e-01
5.259999999999999787e+00 8.709038982894723446e-01
5.280000000000000249e+00 8.665633316742167302e-01
5.299999999999999822e+00 8.622449740883105784e-01
5.320000000000000284e+00 8.579487620648418300e-01
5.339999999999999858e+00 8.536746222176977428e-01
5.360000000000000320e+00 8.494224896611108910e-01
5.379999999999999893e+00 8.451922892908358964e-01
5.400000000000000355e+00 8.409839549007935844e-01
5.419999999999999929e+00 8.367974097607223660e-01
5.440000000000000391e+00 8.326325864396936227e-01
5.459999999999999964e+00 8.284894066705424942e-01
5.480000000000000426e+00 8.243678018899277538e-01
5.500000000000000000e+00 8.202676923798010167e-01
5.520000000000000462e+00 8.161890085338902034e-01
5.540000000000000036e+00 8.121316692663903547e-01
5.560000000000000497e+00 8.080956040146844988e-01
5.580000000000000071e+00 8.040807304053840809e-01
5.600000000000000533e+00 8.000869770032583705e-01
5.620000000000000107e+00 7.961142602247472944e-01
5.639999999999999680e+00 7.921625078429817002e-01
5.660000000000000142e+00 7.882316351387890219e-01
5.679999999999999716e+00 7.843215691719254146e-01
5.700000000000000178e+00 7.804322241595251786e-01
5.719999999999999751e+00 7.765635265235795170e-01
5.740000000000000213e+00 7.727153894867504480e-01
5.759999999999999787e+00 7.688877389062889200e-01
5.780000000000000249e+00 7.650804870770672172e-01
5.799999999999999822e+00 7.612935593621023012e-01
5.820000000000000284e+00 7.575268671925896591e-01
5.839999999999999858e+00 7.537803355053523946e-01
5.860000000000000320e+00 7.500538749296077334e-01
5.879999999999999893e+00 7.463474100416324086e-01
5.900000000000000355e+00 7.426608507279131022e-01
5.919999999999999929e+00 7.389941212674828730e-01
5.940000000000000391e+00 7.353471308610600721e-01
5.959999999999999964e+00 7.317198035514712595e-01
5.980000000000000426e+00 7.281120479082836550e-01
6.000000000000000000e+00 7.245237877969322726e-01
6.020000000000000462e+00 7.209549312082979000e-01
6.040000000000000036e+00 7.174054018870769101e-01
6.060000000000000497e+00 7.138751072957070232e-01
6.080000000000000071e+00 7.103639711127114342e-01
6.100000000000000533e+00 7.068719003202634799e-01
6.120000000000000107e+00 7.033988185832447115e-01
6.140000000000000568e+00 6.999446324496562122e-01
6.160000000000000142e+00 6.965092656212672484e-01
6.179999999999999716e+00 6.930926242560615513e-01
6.200000000000000178e+00 6.896946321413199854e-01
6.219999999999999751e+00 6.863151950871563267e-01
6.240000000000000213e+00 6.829542370131086448e-01
6.259999999999999787e+00 6.796116634217672647e-01
6.280000000000000249e+00 6.762873984098594082e-01
6.299999999999999822e+00 6.729813472108869821e-01
6.320000000000000284e+00 6.696934341419427117e-01
6.339999999999999858e+00 6.664235642041770324e-01
6.360000000000000320e+00 6.631716619765087861e-01
6.379999999999999893e+00 6.599376322626863134e-01
6.400000000000000355e+00 6.567213999432659488e-01
6.419999999999999929e+00 6.535228696579231666e-01
6.440000000000000391e+00 6.503419666270606747e-01
6.459999999999999964e+00 6.471785953579356487e-01
6.480000000000000426e+00 6.440326814474464090e-01
6.500000000000000000e+00 6.409041293005697248e-01
6.520000000000000462e+00 6.377928649258483018e-01
6.540000000000000036e+00 6.346987926545258896e-01
6.560000000000000497e+00 6.316218389404785194e-01
6.580000000000000071e+00 6.285619080683503279e-01
6.600000000000000533e+00 6.255189269696379561e-01
6.620000000000000107e+00 6.224927999080163143e-01
6.640000000000000568e+00 6.194834543235193669e-01
6.660000000000000142e+00 6.164907944831676812e-01
6.679999999999999716e+00 6.135147483651265388e-01
6.700000000000000178e+00 6.105552202626627345e-01
6.719999999999999751e+00 6.076121387204030944e-01
6.740000000000000213e+00 6.046854080795190933e-01
6.759999999999999787e+00 6.017749574781937616e-01
6.780000000000000249e+00 5.988806913258442055e-01
6.799999999999999822e+00 5.960025393801130500e-01
6.820000000000000284e+00 5.931404061378389159e-01
6.839999999999999858e+00 5.902942220008849938e-01
6.860000000000000320e+00 5.874638915714502918e-01
6.879999999999999893e+00 5.846493459192666498e-01
6.900000000000000355e+00 5.818504897687512001e-01
6.919999999999999929e+00 5.790672548800868125e-01
6.940000000000000391e+00 5.762995461156040777e-01
6.959999999999999964e+00 5.735472959474777754e-01
6.980000000000000426e+00 5.708104093906427590e-01
7.000000000000000000e+00 5.680888196498278253e-01
7.020000000000000462e+00 5.653824319061614423e-01
7.040000000000000036e+00 5.626911801165277449e-01
7.060000000000000497e+00 5.600149696409090216e-01
7.080000000000000071e+00 5.573537352070163653e-01
7.100000000000000533e+00 5.547073823653261293e-01
7.120000000000000107e+00 5.520758466321664670e-01
7.140000000000000568e+00 5.494590337592729634e-01
7.160000000000000142e+00 5.468568800685283948e-01
7.179999999999999716e+00 5.442692915227368422e-01
7.200000000000000178e+00 5.416962052654435977e-01
7.219999999999999751e+00 5.391375274795331407e-01
7.240000000000000213e+00 5.365931961455341348e-01
7.259999999999999787e+00 5.340631176745185282e-01
7.280000000000000249e+00 5.315472308985592642e-01
7.299999999999999822e+00 5.290454424642780928e-01
7.320000000000000284e+00 5.265576920691242835e-01
7.339999999999999858e+00 5.240838866018021625e-01
7.360000000000000320e+00 5.216239666382634921e-01
7.379999999999999893e+00 5.191778393151348370e-01
7.400000000000000355e+00 5.167454460993220478e-01
7.419999999999999929e+00 5.143266943804307711e-01
7.440000000000000391e+00 5.119215265281367166e-01
7.459999999999999964e+00 5.095298501894403032e-01
7.480000000000000426e+00 5.071516086479773699e-01
7.500000000000000000e+00 5.047867098118336004e-01
7.520000000000000462e+00 5.024350978891966024e-01
7.540000000000000036e+00 5.000966810523547190e-01
7.560000000000000497e+00 4.977714044440718077e-01
7.580000000000000071e+00 4.954591765032484996e-01
7.600000000000000533e+00 4.931599433167066504e-01
7.620000000000000107e+00 4.908736135918593257e-01
7.640000000000000568e+00 4.886001343685472675e-01
7.660000000000000142e+00 4.863394146239297666e-01
7.679999999999999716e+00 4.840914023593305138e-01
7.700000000000000178e+00 4.818560068224196358e-01
7.719999999999999751e+00 4.796331769839787817e-01
7.740000000000000213e+00 4.774228223623503964e-01
7.759999999999999787e+00 4.752248929053052295e-01
7.780000000000000249e+00 4.730392984015699964e-01
7.799999999999999822e+00 4.708659897829957086e-01
7.820000000000000284e+00 4.687048771078454745e-01
7.839999999999999858e+00 4.665559122987245066e-01
7.860000000000000320e+00 4.644190056821857482e-01
7.879999999999999893e+00 4.622941101778679229e-01
