# Electrodo circular de radio 6 mm y espesor 710.0 um.
# Volumen de simulacion (convencion z,y,x):
# N: 1024 x 1024 x 1024 | voxelSize:  0.02mm x 0.02mm x 0.02mm | FOV:  20.48mm x 20.48mm x 20.48mm
# 
# z [mm]		 delta[ppm]
0.000000000000000000e+00 3.754054932381104770e+00
2.000000000000000042e-02 3.734589206894940450e+00
4.000000000000000083e-02 3.714713501246102112e+00
5.999999999999999778e-02 3.694445134394370722e+00
8.000000000000000167e-02 3.673801595756138738e+00
1.000000000000000056e-01 3.652800431573564488e+00
1.199999999999999956e-01 3.631459208328124966e+00
1.400000000000000133e-01 3.609795479994325706e+00
1.600000000000000033e-01 3.587826753032868243e+00
1.799999999999999933e-01 3.565570464629690406e+00
2.000000000000000111e-01 3.543043945244144233e+00
2.200000000000000011e-01 3.520264401509181518e+00
2.399999999999999911e-01 3.497248879361050555e+00
2.600000000000000089e-01 3.474014250363688827e+00
2.800000000000000266e-01 3.450577176053077455e+00
2.999999999999999889e-01 3.426954097623217343e+00
3.200000000000000067e-01 3.403161201915948730e+00
3.400000000000000244e-01 3.379214414477262007e+00
3.599999999999999867e-01 3.355129367430079945e+00
3.800000000000000044e-01 3.330921395930994677e+00
4.000000000000000222e-01 3.306605508074011546e+00
4.199999999999999845e-01 3.282196384745267981e+00
4.400000000000000022e-01 3.257708351628576526e+00
4.600000000000000200e-01 3.233155382419985013e+00
4.799999999999999822e-01 3.208551072934996196e+00
5.000000000000000000e-01 3.183908647603233444e+00
5.200000000000000178e-01 3.159240935629006763e+00
5.400000000000000355e-01 3.134560380647334998e+00
5.600000000000000533e-01 3.109879018835470799e+00
5.799999999999999600e-01 3.085208491576707956e+00
5.999999999999999778e-01 3.060560025389435612e+00
6.199999999999999956e-01 3.035944447415706904e+00
6.400000000000000133e-01 3.011372166997664745e+00
6.600000000000000311e-01 2.986853193785228733e+00
6.800000000000000488e-01 2.962397120773848425e+00
7.000000000000000666e-01 2.938013144809247912e+00
7.199999999999999734e-01 2.913710050880172542e+00
7.399999999999999911e-01 2.889496234788728302e+00
7.600000000000000089e-01 2.865379688489196219e+00
7.800000000000000266e-01 2.841368024688704086e+00
8.000000000000000444e-01 2.817468463016971292e+00
8.200000000000000622e-01 2.793687856324118091e+00
8.399999999999999689e-01 2.770032677474222549e+00
8.599999999999999867e-01 2.746509047113425250e+00
8.800000000000000044e-01 2.723122720884613823e+00
9.000000000000000222e-01 2.699879118449502791e+00
9.200000000000000400e-01 2.676783310937095095e+00
9.400000000000000577e-01 2.653840051016695067e+00
9.599999999999999645e-01 2.631053760404090447e+00
9.799999999999999822e-01 2.608428560798137674e+00
1.000000000000000000e+00 2.585968261287969305e+00
1.020000000000000018e+00 2.563676389982687098e+00
1.040000000000000036e+00 2.541556181177714535e+00
1.060000000000000053e+00 2.519610607525021972e+00
1.080000000000000071e+00 2.497842366837221384e+00
1.100000000000000089e+00 2.476253914663587796e+00
1.120000000000000107e+00 2.454847450626191474e+00
1.140000000000000124e+00 2.433624951284640847e+00
1.159999999999999920e+00 2.412588155918137023e+00
1.179999999999999938e+00 2.391738599578703717e+00
1.199999999999999956e+00 2.371077598247679497e+00
1.219999999999999973e+00 2.350606281993197655e+00
1.239999999999999991e+00 2.330325579446928419e+00
1.260000000000000009e+00 2.310236250996227536e+00
1.280000000000000027e+00 2.290338872539469328e+00
1.300000000000000044e+00 2.270633868656696919e+00
1.320000000000000062e+00 2.251121495616331014e+00
1.340000000000000080e+00 2.231801874480023429e+00
1.360000000000000098e+00 2.212674973343479401e+00
1.380000000000000115e+00 2.193740640341832471e+00
1.400000000000000133e+00 2.174998585118654404e+00
1.419999999999999929e+00 2.156448411707272861e+00
1.439999999999999947e+00 2.138089599229394899e+00
1.459999999999999964e+00 2.119921534635615501e+00
1.479999999999999982e+00 2.101943492643625344e+00
1.500000000000000000e+00 2.084154668327664606e+00
1.520000000000000018e+00 2.066554156311259494e+00
1.540000000000000036e+00 2.049140983200804733e+00
1.560000000000000053e+00 2.031914086053838719e+00
1.580000000000000071e+00 2.014872344656261305e+00
1.600000000000000089e+00 1.998014559290169023e+00
1.620000000000000107e+00 1.981339482857639611e+00
1.640000000000000124e+00 1.964845797976190855e+00
1.660000000000000142e+00 1.948532148954669863e+00
1.679999999999999938e+00 1.932397118245827494e+00
1.699999999999999956e+00 1.916439258281728453e+00
1.719999999999999973e+00 1.900657067315459692e+00
1.739999999999999991e+00 1.885049021124713953e+00
1.760000000000000009e+00 1.869613548274950521e+00
1.780000000000000027e+00 1.854349061700547807e+00
1.800000000000000044e+00 1.839253933423077747e+00
1.820000000000000062e+00 1.824326526019760752e+00
1.840000000000000080e+00 1.809565166830001237e+00
1.860000000000000098e+00 1.794968179320798107e+00
1.880000000000000115e+00 1.780533856815263549e+00
1.900000000000000133e+00 1.766260493764332917e+00
1.919999999999999929e+00 1.752146359029913558e+00
1.939999999999999947e+00 1.738189727071696833e+00
1.959999999999999964e+00 1.724388850817634378e+00
1.979999999999999982e+00 1.710741992773893383e+00
2.000000000000000000e+00 1.697247397514000555e+00
2.020000000000000018e+00 1.683903322719180196e+00
2.040000000000000036e+00 1.670708011317176833e+00
2.060000000000000053e+00 1.657659722459248197e+00
2.080000000000000071e+00 1.644756703338202675e+00
2.100000000000000089e+00 1.631997220107335833e+00
2.120000000000000107e+00 1.619379529406738349e+00
2.140000000000000124e+00 1.606901909228416692e+00
2.160000000000000142e+00 1.594562630178381291e+00
2.180000000000000160e+00 1.582359986291193898e+00
2.200000000000000178e+00 1.570292266054781560e+00
2.220000000000000195e+00 1.558357783176606892e+00
2.240000000000000213e+00 1.546554847396663934e+00
2.260000000000000231e+00 1.534881795206489929e+00
2.280000000000000249e+00 1.523336960475201174e+00
2.300000000000000266e+00 1.511918705121596984e+00
2.319999999999999840e+00 1.500625389576698332e+00
2.339999999999999858e+00 1.489455403408256551e+00
2.359999999999999876e+00 1.478407135642729076e+00
2.379999999999999893e+00 1.467479005340625475e+00
2.399999999999999911e+00 1.456669431799520797e+00
2.419999999999999929e+00 1.445976865077867934e+00
2.439999999999999947e+00 1.435399756100177227e+00
2.459999999999999964e+00 1.424936587126126586e+00
2.479999999999999982e+00 1.414585841777839414e+00
2.500000000000000000e+00 1.404346035450417807e+00
2.520000000000000018e+00 1.394215685280832950e+00
2.540000000000000036e+00 1.384193340495344815e+00
2.560000000000000053e+00 1.374277552338419195e+00
2.580000000000000071e+00 1.364466904351891552e+00
2.600000000000000089e+00 1.354759982281990460e+00
2.620000000000000107e+00 1.345155404284540612e+00
2.640000000000000124e+00 1.335651790827187213e+00
2.660000000000000142e+00 1.326247794814418901e+00
2.680000000000000160e+00 1.316942071501833844e+00
2.700000000000000178e+00 1.307733308534288375e+00
2.720000000000000195e+00 1.298620195888147144e+00
2.740000000000000213e+00 1.289601455815475362e+00
2.760000000000000231e+00 1.280675812829998206e+00
2.780000000000000249e+00 1.271842023549867529e+00
2.800000000000000266e+00 1.263098846742270576e+00
2.819999999999999840e+00 1.254445073056972504e+00
2.839999999999999858e+00 1.245879495144348370e+00
2.859999999999999876e+00 1.237400937271618595e+00
2.879999999999999893e+00 1.229008225528359421e+00
2.899999999999999911e+00 1.220700217317083336e+00
2.919999999999999929e+00 1.212475771660189716e+00
2.939999999999999947e+00 1.204333778556296641e+00
2.959999999999999964e+00 1.196273129401932200e+00
2.979999999999999982e+00 1.188292746204874240e+00
3.000000000000000000e+00 1.180391552133788657e+00
3.020000000000000018e+00 1.172568500579658224e+00
3.040000000000000036e+00 1.164822545845993318e+00
3.060000000000000053e+00 1.157152672049278852e+00
3.080000000000000071e+00 1.149557863962360482e+00
3.100000000000000089e+00 1.142037135744715215e+00
3.120000000000000107e+00 1.134589501951068558e+00
3.140000000000000124e+00 1.127214006082217113e+00
3.160000000000000142e+00 1.119909691770900162e+00
3.180000000000000160e+00 1.112675631143834609e+00
3.200000000000000178e+00 1.105510896196369552e+00
3.220000000000000195e+00 1.098414586956347083e+00
3.240000000000000213e+00 1.091385803059055526e+00
3.260000000000000231e+00 1.084423671703485414e+00
3.280000000000000249e+00 1.077527319438668751e+00
3.300000000000000266e+00 1.070695899902870618e+00
3.320000000000000284e+00 1.063928565832382711e+00
3.339999999999999858e+00 1.057224496574211248e+00
3.359999999999999876e+00 1.050582870327979812e+00
3.379999999999999893e+00 1.044002891422649126e+00
3.399999999999999911e+00 1.037483762802226650e+00
3.419999999999999929e+00 1.031024713057068887e+00
3.439999999999999947e+00 1.024624969163682842e+00
3.459999999999999964e+00 1.018283783261216824e+00
3.479999999999999982e+00 1.012000405655645308e+00
3.500000000000000000e+00 1.005774111332095710e+00
3.520000000000000018e+00 9.996041732333484919e-01
3.540000000000000036e+00 9.934898884986754775e-01
3.560000000000000053e+00 9.874305520266315472e-01
3.580000000000000071e+00 9.814254824311269276e-01
3.600000000000000089e+00 9.754739958981308856e-01
3.620000000000000107e+00 9.695754318497841195e-01
3.640000000000000124e+00 9.637291271046471985e-01
3.660000000000000142e+00 9.579344412407335696e-01
3.680000000000000160e+00 9.521907310686039683e-01
3.700000000000000178e+00 9.464973756842466335e-01
3.720000000000000195e+00 9.408537512643939671e-01
3.740000000000000213e+00 9.352592558002633671e-01
3.760000000000000231e+00 9.297132842241003781e-01
3.780000000000000249e+00 9.242152528148883661e-01
3.800000000000000266e+00 9.187645746651981193e-01
3.820000000000000284e+00 9.133606837500414244e-01
3.839999999999999858e+00 9.080030107427838892e-01
3.859999999999999876e+00 9.026910067384146252e-01
3.879999999999999893e+00 8.974241194273196998e-01
3.899999999999999911e+00 8.922018164643412685e-01
3.919999999999999929e+00 8.870235620089036432e-01
3.939999999999999947e+00 8.818888397313231486e-01
3.959999999999999964e+00 8.767971297278291942e-01
3.979999999999999982e+00 8.717479311556723953e-01
4.000000000000000000e+00 8.667407395313113661e-01
4.020000000000000462e+00 8.617750689859596802e-01
4.040000000000000036e+00 8.568504299552214265e-01
4.060000000000000497e+00 8.519663510468509227e-01
4.080000000000000071e+00 8.471223571298405197e-01
4.099999999999999645e+00 8.423179908062551347e-01
4.120000000000000107e+00 8.375527909078187561e-01
4.139999999999999680e+00 8.328263135637591352e-01
4.160000000000000142e+00 8.281381111127189554e-01
4.179999999999999716e+00 8.234877527586531576e-01
4.200000000000000178e+00 8.188748039058638684e-01
4.219999999999999751e+00 8.142988463951332800e-01
4.240000000000000213e+00 8.097594582694442877e-01
4.259999999999999787e+00 8.052562335826002338e-01
4.280000000000000249e+00 8.007887626032426098e-01
4.299999999999999822e+00 7.963566511883036769e-01
4.320000000000000284e+00 7.919595014326858973e-01
4.339999999999999858e+00 7.875969306000061287e-01
4.360000000000000320e+00 7.832685522253253207e-01
4.379999999999999893e+00 7.789739945957526723e-01
4.400000000000000355e+00 7.747128823133562214e-01
4.419999999999999929e+00 7.704848543182923892e-01
4.440000000000000391e+00 7.662895459190903757e-01
4.459999999999999964e+00 7.621266063510565569e-01
4.480000000000000426e+00 7.579956812808995581e-01
4.500000000000000000e+00 7.538964298932409047e-01
4.520000000000000462e+00 7.498285078765747347e-01
4.540000000000000036e+00 7.457915840308539934e-01
4.560000000000000497e+00 7.417853237415307222e-01
4.580000000000000071e+00 7.378094051012556998e-01
4.600000000000000533e+00 7.338635028788156323e-01
4.620000000000000107e+00 7.299473041480748492e-01
4.639999999999999680e+00 7.260604927583937940e-01
4.660000000000000142e+00 7.222027644640431898e-01
4.679999999999999716e+00 7.183738119027154312e-01
4.700000000000000178e+00 7.145733392187400002e-01
4.719999999999999751e+00 7.108010475560925245e-01
4.740000000000000213e+00 7.070566491688111688e-01
4.759999999999999787e+00 7.033398534349656339e-01
4.780000000000000249e+00 6.996503804477532951e-01
4.799999999999999822e+00 6.959879475566753682e-01
4.820000000000000284e+00 6.923522824329024772e-01
4.839999999999999858e+00 6.887431101439269732e-01
4.860000000000000320e+00 6.851601656868626655e-01
4.879999999999999893e+00 6.816031816026619783e-01
4.900000000000000355e+00 6.780718999710865225e-01
4.919999999999999929e+00 6.745660605706257362e-01
4.940000000000000391e+00 6.710854123289503592e-01
4.959999999999999964e+00 6.676297020344802435e-01
4.980000000000000426e+00 6.641986852361936311e-01
5.000000000000000000e+00 6.607921155128501089e-01
5.020000000000000462e+00 6.574097548161326188e-01
5.040000000000000036e+00 6.540513633032972729e-01
5.060000000000000497e+00 6.507167091176967455e-01
5.080000000000000071e+00 6.474055587907229237e-01
5.100000000000000533e+00 6.441176864538057378e-01
5.120000000000000107e+00 6.408528648153206664e-01
5.139999999999999680e+00 6.376108737982294494e-01
5.160000000000000142e+00 6.343914920976990723e-01
5.179999999999999716e+00 6.311945052386103150e-01
5.200000000000000178e+00 6.280196977194357766e-01
5.219999999999999751e+00 6.248668604839121565e-01
5.240000000000000213e+00 6.217357836568079277e-01
5.259999999999999787e+00 6.186262634241005420e-01
5.280000000000000249e+00 6.155380953660752885e-01
5.299999999999999822e+00 6.124710807404224466e-01
5.320000000000000284e+00 6.094250204181814734e-01
5.339999999999999858e+00 6.063997205642268629e-01
5.360000000000000320e+00 6.033949871813900634e-01
5.379999999999999893e+00 6.004106311828372178e-01
5.400000000000000355e+00 5.974464635498210052e-01
5.419999999999999929e+00 5.945022997904901851e-01
5.440000000000000391e+00 5.915779557165304903e-01
5.459999999999999964e+00 5.886732512829980779e-01
5.480000000000000426e+00 5.857880069892135166e-01
5.500000000000000000e+00 5.829220470942586552e-01
5.520000000000000462e+00 5.800751966472871279e-01
5.540000000000000036e+00 5.772472840733722244e-01
5.560000000000000497e+00 5.744381388385281229e-01
5.580000000000000071e+00 5.716475934006081117e-01
5.600000000000000533e+00 5.688754815141520149e-01
5.620000000000000107e+00 5.661216395410781921e-01
5.639999999999999680e+00 5.633859054005969647e-01
5.660000000000000142e+00 5.606681192344618037e-01
5.679999999999999716e+00 5.579681230070061559e-01
5.700000000000000178e+00 5.552857605197509816e-01
5.719999999999999751e+00 5.526208776667630440e-01
5.740000000000000213e+00 5.499733217934347218e-01
5.759999999999999787e+00 5.473429426121766417e-01
5.780000000000000249e+00 5.447295909002101144e-01
5.799999999999999822e+00 5.421331200807592010e-01
5.820000000000000284e+00 5.395533842547144410e-01
5.839999999999999858e+00 5.369902404522955974e-01
5.860000000000000320e+00 5.344435459934606669e-01
5.879999999999999893e+00 5.319131614151981768e-01
5.900000000000000355e+00 5.293989471555441417e-01
5.919999999999999929e+00 5.269007671614714949e-01
5.940000000000000391e+00 5.244184848914060781e-01
5.959999999999999964e+00 5.219519676088517635e-01
5.980000000000000426e+00 5.195010816982852386e-01
6.000000000000000000e+00 5.170656976494926171e-01
6.020000000000000462e+00 5.146456846817240027e-01
6.040000000000000036e+00 5.122409164238841406e-01
6.060000000000000497e+00 5.098512648418354054e-01
6.080000000000000071e+00 5.074766066194178471e-01
6.100000000000000533e+00 5.051168163837740366e-01
6.120000000000000107e+00 5.027717737923644847e-01
6.140000000000000568e+00 5.004413560511796755e-01
6.160000000000000142e+00 4.981254457127495816e-01
6.179999999999999716e+00 4.958239224821006652e-01
6.200000000000000178e+00 4.935366717309531692e-01
6.219999999999999751e+00 4.912635755862478915e-01
6.240000000000000213e+00 4.890045221655816010e-01
6.259999999999999787e+00 4.867593959431222861e-01
6.280000000000000249e+00 4.845280877115088480e-01
6.299999999999999822e+00 4.823104842199493203e-01
6.320000000000000284e+00 4.801064788676831507e-01
6.339999999999999858e+00 4.779159606090189749e-01
6.360000000000000320e+00 4.757388253836539183e-01
6.379999999999999893e+00 4.735749642833922413e-01
6.400000000000000355e+00 4.714242757244749282e-01
6.419999999999999929e+00 4.692866528706702844e-01
6.440000000000000391e+00 4.671619965529854590e-01
6.459999999999999964e+00 4.650502019438010892e-01
6.480000000000000426e+00 4.629511722291875242e-01
6.500000000000000000e+00 4.608648045286973249e-01
6.520000000000000462e+00 4.587910043257512616e-01
6.540000000000000036e+00 4.567296706276646745e-01
6.560000000000000497e+00 4.546807111594222128e-01
6.580000000000000071e+00 4.526440267584641020e-01
6.600000000000000533e+00 4.506195273374106192e-01
6.620000000000000107e+00 4.486071155080812445e-01
6.640000000000000568e+00 4.466067033185952551e-01
6.660000000000000142e+00 4.446181951010366173e-01
6.679999999999999716e+00 4.426415049886137654e-01
6.700000000000000178e+00 4.406765389813345757e-01
6.719999999999999751e+00 4.387232132487581815e-01
6.740000000000000213e+00 4.367814354079833650e-01
6.759999999999999787e+00 4.348511236177894368e-01
6.780000000000000249e+00 4.329321870631791525e-01
6.799999999999999822e+00 4.310245458465859492e-01
6.820000000000000284e+00 4.291281106731177908e-01
6.839999999999999858e+00 4.272428035448019301e-01
6.860000000000000320e+00 4.253685366405938195e-01
6.879999999999999893e+00 4.235052338194933430e-01
6.900000000000000355e+00 4.216528086893442939e-01
6.919999999999999929e+00 4.198111869249067651e-01
6.940000000000000391e+00 4.179802835193770494e-01
6.959999999999999964e+00 4.161600259234160548e-01
6.980000000000000426e+00 4.143503304732302217e-01
7.000000000000000000e+00 4.125511263568373832e-01
7.020000000000000462e+00 4.107623312124475401e-01
7.040000000000000036e+00 4.089838759281508862e-01
7.060000000000000497e+00 4.072156794042581240e-01
7.080000000000000071e+00 4.054576741928685446e-01
7.100000000000000533e+00 4.037097804177392502e-01
7.120000000000000107e+00 4.019719322601043032e-01
7.140000000000000568e+00 4.002440510295221521e-01
7.160000000000000142e+00 3.985260725026276707e-01
7.179999999999999716e+00 3.968179191383099935e-01
7.200000000000000178e+00 3.951195282759760730e-01
7.219999999999999751e+00 3.934308234883017730e-01
7.240000000000000213e+00 3.917517436459110880e-01
7.259999999999999787e+00 3.900822134008242736e-01
7.280000000000000249e+00 3.884221731243567843e-01
7.299999999999999822e+00 3.867715485142773635e-01
7.320000000000000284e+00 3.851302814130728724e-01
7.339999999999999858e+00 3.834982985317060278e-01
7.360000000000000320e+00 3.818755431552836588e-01
7.379999999999999893e+00 3.802619429761772696e-01
7.400000000000000355e+00 3.786574426945036320e-01
7.419999999999999929e+00 3.770619709532297414e-01
7.440000000000000391e+00 3.754754738407793391e-01
7.459999999999999964e+00 3.738978809206149889e-01
7.480000000000000426e+00 3.723291396436461675e-01
7.500000000000000000e+00 3.707691804646425227e-01
7.520000000000000462e+00 3.692179521720255764e-01
7.540000000000000036e+00 3.676753860833400500e-01
7.560000000000000497e+00 3.661414323003816529e-01
7.580000000000000071e+00 3.646160229757777760e-01
7.600000000000000533e+00 3.630991095013533787e-01
7.620000000000000107e+00 3.615906248377368515e-01
7.640000000000000568e+00 3.600905216442227275e-01
7.660000000000000142e+00 3.585987336631527578e-01
7.679999999999999716e+00 3.571152147994773873e-01
7.700000000000000178e+00 3.556398995515053230e-01
7.719999999999999751e+00 3.541727430487672246e-01
7.740000000000000213e+00 3.527136805205489667e-01
7.759999999999999787e+00 3.512626683005930506e-01
7.780000000000000249e+00 3.498196423246624498e-01
7.799999999999999822e+00 3.483845601110289736e-01
7.820000000000000284e+00 3.469573582781479981e-01
7.839999999999999858e+00 3.455379955098084044e-01
7.860000000000000320e+00 3.441264090838090928e-01
7.879999999999999893e+00 3.427225588310980897e-01
