# Electrodo circular de radio 6 mm y espesor 710.0 um.
# Volumen de simulacion (convencion z,y,x):
# N: 1024 x 1024 x 1024 | voxelSize:  0.02mm x 0.02mm x 0.02mm | FOV:  20.48mm x 20.48mm x 20.48mm
# 
# z [mm]		 delta[ppm]
0.000000000000000000e+00 5.269712630631988581e+00
2.000000000000000042e-02 5.187385586634213119e+00
4.000000000000000083e-02 5.104500972690602545e+00
5.999999999999999778e-02 5.021232327214186775e+00
8.000000000000000167e-02 4.937749635631079492e+00
1.000000000000000056e-01 4.854217950355131705e+00
1.199999999999999956e-01 4.770796391904459810e+00
1.400000000000000133e-01 4.687637175341626161e+00
1.600000000000000033e-01 4.604884797335850877e+00
1.799999999999999933e-01 4.522675339013757956e+00
2.000000000000000111e-01 4.441135901315174550e+00
2.200000000000000011e-01 4.360384190420161232e+00
2.399999999999999911e-01 4.280528221713949755e+00
2.600000000000000089e-01 4.201666178128183660e+00
2.800000000000000266e-01 4.123886366919013113e+00
2.999999999999999889e-01 4.047267319591925983e+00
3.200000000000000067e-01 3.971877963300320502e+00
3.400000000000000244e-01 3.897777915063268317e+00
3.599999999999999867e-01 3.825017816987530406e+00
3.800000000000000044e-01 3.753639770429581635e+00
4.000000000000000222e-01 3.683677780843819694e+00
4.199999999999999845e-01 3.615158278235108824e+00
4.400000000000000022e-01 3.548100620996250232e+00
4.600000000000000200e-01 3.482517655281959001e+00
4.799999999999999822e-01 3.418416235179832618e+00
5.000000000000000000e-01 3.355797782999087708e+00
5.200000000000000178e-01 3.294658793112331452e+00
5.400000000000000355e-01 3.234991365449929823e+00
5.600000000000000533e-01 3.176783670433472651e+00
5.799999999999999600e-01 3.120020437658142853e+00
5.999999999999999778e-01 3.064683368334681912e+00
6.199999999999999956e-01 3.010751569337883460e+00
6.400000000000000133e-01 2.958201906829978967e+00
6.600000000000000311e-01 2.907009382200526737e+00
6.800000000000000488e-01 2.857147425951419351e+00
7.000000000000000666e-01 2.808588216569974705e+00
7.199999999999999734e-01 2.761302917417451486e+00
7.399999999999999911e-01 2.715261942497421810e+00
7.600000000000000089e-01 2.670435141331040985e+00
7.800000000000000266e-01 2.626792017228789522e+00
8.000000000000000444e-01 2.584301866258505331e+00
8.200000000000000622e-01 2.542933954333649549e+00
8.399999999999999689e-01 2.502657616730672441e+00
8.599999999999999867e-01 2.463442400364545648e+00
8.800000000000000044e-01 2.425258130130360623e+00
9.000000000000000222e-01 2.388075022386455526e+00
9.200000000000000400e-01 2.351863723914604964e+00
9.400000000000000577e-01 2.316595402051138120e+00
9.599999999999999645e-01 2.282241761409418590e+00
9.799999999999999822e-01 2.248775115417659620e+00
1.000000000000000000e+00 2.216168385251770623e+00
1.020000000000000018e+00 2.184395156838281782e+00
1.040000000000000036e+00 2.153429665752034872e+00
1.060000000000000053e+00 2.123246843076112889e+00
1.080000000000000071e+00 2.093822289384044133e+00
1.100000000000000089e+00 2.065132312243531221e+00
1.120000000000000107e+00 2.037153891829894370e+00
1.140000000000000124e+00 2.009864712329811010e+00
1.159999999999999920e+00 1.983243121243815743e+00
1.179999999999999938e+00 1.957268156492242284e+00
1.199999999999999956e+00 1.931919501044352394e+00
1.219999999999999973e+00 1.907177507148049012e+00
1.239999999999999991e+00 1.883023147579488521e+00
1.260000000000000009e+00 1.859438038103609969e+00
1.280000000000000027e+00 1.836404386350783735e+00
1.300000000000000044e+00 1.813905013359018659e+00
1.320000000000000062e+00 1.791923300856441026e+00
1.340000000000000080e+00 1.770443212529355215e+00
1.360000000000000098e+00 1.749449240302006547e+00
1.380000000000000115e+00 1.728926425809882428e+00
1.400000000000000133e+00 1.708860306123746842e+00
1.419999999999999929e+00 1.689236935777119752e+00
1.439999999999999947e+00 1.670042832263706867e+00
1.459999999999999964e+00 1.651264998865777489e+00
1.479999999999999982e+00 1.632890870166008535e+00
1.500000000000000000e+00 1.614908335843930898e+00
1.520000000000000018e+00 1.597305686371345068e+00
1.540000000000000036e+00 1.580071637882828561e+00
1.560000000000000053e+00 1.563195278172210267e+00
1.580000000000000071e+00 1.546666092696407757e+00
1.600000000000000089e+00 1.530473910948020766e+00
1.620000000000000107e+00 1.514608933616556463e+00
1.640000000000000124e+00 1.499061679383473678e+00
1.660000000000000142e+00 1.483823013238616761e+00
1.679999999999999938e+00 1.468884093719907691e+00
1.699999999999999956e+00 1.454236402363694891e+00
1.719999999999999973e+00 1.439871691396536812e+00
1.739999999999999991e+00 1.425782014284407095e+00
1.760000000000000009e+00 1.411959673871040710e+00
1.780000000000000027e+00 1.398397253981439103e+00
1.800000000000000044e+00 1.385087567994797597e+00
1.820000000000000062e+00 1.372023691451454974e+00
1.840000000000000080e+00 1.359198911041995084e+00
1.860000000000000098e+00 1.346606758162917972e+00
1.880000000000000115e+00 1.334240958301843083e+00
1.900000000000000133e+00 1.322095465485131793e+00
1.919999999999999929e+00 1.310164412036438630e+00
1.939999999999999947e+00 1.298442143858840936e+00
1.959999999999999964e+00 1.286923170544940653e+00
1.979999999999999982e+00 1.275602201436316419e+00
2.000000000000000000e+00 1.264474096062749187e+00
2.020000000000000018e+00 1.253533900922850108e+00
2.040000000000000036e+00 1.242776800232228807e+00
2.060000000000000053e+00 1.232198153370596350e+00
2.080000000000000071e+00 1.221793445919115317e+00
2.100000000000000089e+00 1.211558327721113049e+00
2.120000000000000107e+00 1.201488564191652175e+00
2.140000000000000124e+00 1.191580074940972400e+00
2.160000000000000142e+00 1.181828885340167501e+00
2.180000000000000160e+00 1.172231165658603080e+00
2.200000000000000178e+00 1.162783182872531018e+00
2.220000000000000195e+00 1.153481340269859823e+00
2.240000000000000213e+00 1.144322129489491413e+00
2.260000000000000231e+00 1.135302170548985634e+00
2.280000000000000249e+00 1.126418164105227548e+00
2.300000000000000266e+00 1.117666931862607127e+00
2.319999999999999840e+00 1.109045369046526064e+00
2.339999999999999858e+00 1.100550485151750024e+00
2.359999999999999876e+00 1.092179356622895003e+00
2.379999999999999893e+00 1.083929167904523538e+00
2.399999999999999911e+00 1.075797164323484267e+00
2.419999999999999929e+00 1.067780693404198900e+00
2.439999999999999947e+00 1.059877157950101401e+00
2.459999999999999964e+00 1.052084057589284249e+00
2.479999999999999982e+00 1.044398942052837231e+00
2.500000000000000000e+00 1.036819452917687512e+00
2.520000000000000018e+00 1.029343277081752772e+00
2.540000000000000036e+00 1.021968188672340849e+00
2.560000000000000053e+00 1.014692002718390995e+00
2.580000000000000071e+00 1.007512617194267213e+00
2.600000000000000089e+00 1.000427966891224818e+00
2.620000000000000107e+00 9.934360655677910712e-01
2.640000000000000124e+00 9.865349600227745208e-01
2.660000000000000142e+00 9.797227723246880737e-01
2.680000000000000160e+00 9.729976540902918192e-01
2.700000000000000178e+00 9.663578287666931832e-01
2.720000000000000195e+00 9.598015461194134845e-01
2.740000000000000213e+00 9.533271245419336903e-01
2.760000000000000231e+00 9.469329057587307918e-01
2.780000000000000249e+00 9.406172971380701853e-01
2.800000000000000266e+00 9.343787266153410487e-01
2.819999999999999840e+00 9.282156849858578251e-01
2.839999999999999858e+00 9.221266810551158599e-01
2.859999999999999876e+00 9.161102838892980493e-01
2.879999999999999893e+00 9.101650781988029904e-01
2.899999999999999911e+00 9.042897065250041777e-01
2.919999999999999929e+00 8.984828248645790882e-01
2.939999999999999947e+00 8.927431447718426893e-01
2.959999999999999964e+00 8.870693892310463902e-01
2.979999999999999982e+00 8.814603346544039875e-01
3.000000000000000000e+00 8.759147670105296157e-01
3.020000000000000018e+00 8.704315236989885740e-01
3.040000000000000036e+00 8.650094499426054240e-01
3.060000000000000053e+00 8.596474405200295044e-01
3.080000000000000071e+00 8.543443964306006722e-01
3.100000000000000089e+00 8.490992664670310441e-01
3.120000000000000107e+00 8.439110041609931834e-01
3.140000000000000124e+00 8.387786091786543219e-01
3.160000000000000142e+00 8.337010845559693628e-01
3.180000000000000160e+00 8.286774779003761582e-01
3.200000000000000178e+00 8.237068389241991584e-01
3.220000000000000195e+00 8.187882604363648786e-01
3.240000000000000213e+00 8.139208361830860827e-01
3.260000000000000231e+00 8.091037016139710492e-01
3.280000000000000249e+00 8.043359920385454442e-01
3.300000000000000266e+00 7.996168831516108355e-01
3.320000000000000284e+00 7.949455495148597395e-01
3.339999999999999858e+00 7.903212048268389855e-01
3.359999999999999876e+00 7.857430607382388521e-01
3.379999999999999893e+00 7.812103668522426547e-01
3.399999999999999911e+00 7.767223698827608880e-01
3.419999999999999929e+00 7.722783533713830639e-01
3.439999999999999947e+00 7.678775971970976943e-01
3.459999999999999964e+00 7.635194169965127120e-01
3.479999999999999982e+00 7.592031240342050902e-01
3.500000000000000000e+00 7.549280643132761925e-01
3.520000000000000018e+00 7.506935788147638400e-01
3.540000000000000036e+00 7.464990422859655306e-01
3.560000000000000053e+00 7.423438238579398440e-01
3.580000000000000071e+00 7.382273254994172751e-01
3.600000000000000089e+00 7.341489430206445954e-01
3.620000000000000107e+00 7.301081041810824068e-01
3.640000000000000124e+00 7.261042300884035239e-01
3.660000000000000142e+00 7.221367729485335119e-01
3.680000000000000160e+00 7.182051778678337772e-01
3.700000000000000178e+00 7.143089202343578803e-01
3.720000000000000195e+00 7.104474679318332209e-01
3.740000000000000213e+00 7.066203183413560796e-01
3.760000000000000231e+00 7.028269609749319136e-01
3.780000000000000249e+00 6.990669140871620391e-01
3.800000000000000266e+00 6.953396877366820883e-01
3.820000000000000284e+00 6.916448199976880096e-01
3.839999999999999858e+00 6.879818404567821233e-01
3.859999999999999876e+00 6.843503060145038619e-01
3.879999999999999893e+00 6.807497648256126688e-01
3.899999999999999911e+00 6.771797916811042040e-01
3.919999999999999929e+00 6.736399523991203342e-01
3.939999999999999947e+00 6.701298387782159693e-01
3.959999999999999964e+00 6.666490334466276257e-01
3.979999999999999982e+00 6.631971443778152953e-01
4.000000000000000000e+00 6.597737702050007202e-01
4.020000000000000462e+00 6.563785342902991315e-01
4.040000000000000036e+00 6.530110505119132158e-01
4.060000000000000497e+00 6.496709568784674316e-01
4.080000000000000071e+00 6.463578817954157563e-01
4.099999999999999645e+00 6.430714772164345394e-01
4.120000000000000107e+00 6.398113853961153730e-01
4.139999999999999680e+00 6.365772715705180218e-01
4.160000000000000142e+00 6.333687912024057454e-01
4.179999999999999716e+00 6.301856221833184168e-01
4.200000000000000178e+00 6.270274325780678115e-01
4.219999999999999751e+00 6.238939123409685816e-01
4.240000000000000213e+00 6.207847415654792478e-01
4.259999999999999787e+00 6.176996217074401940e-01
4.280000000000000249e+00 6.146382443462748979e-01
4.299999999999999822e+00 6.116003219083190334e-01
4.320000000000000284e+00 6.085855569451327218e-01
4.339999999999999858e+00 6.055936723502463037e-01
4.360000000000000320e+00 6.026243811606580847e-01
4.379999999999999893e+00 5.996774162605505998e-01
4.400000000000000355e+00 5.967525007111672553e-01
4.419999999999999929e+00 5.938493769352727325e-01
4.440000000000000391e+00 5.909677775811605915e-01
4.459999999999999964e+00 5.881074541818316348e-01
4.480000000000000426e+00 5.852681485580278897e-01
4.500000000000000000e+00 5.824496209462960428e-01
4.520000000000000462e+00 5.796516219464732389e-01
4.540000000000000036e+00 5.768739201130527183e-01
4.560000000000000497e+00 5.741162744516535854e-01
4.580000000000000071e+00 5.713784614682823060e-01
4.600000000000000533e+00 5.686602482199040187e-01
4.620000000000000107e+00 5.659614188163817339e-01
4.639999999999999680e+00 5.632817480293847989e-01
4.660000000000000142e+00 5.606210272419857032e-01
4.679999999999999716e+00 5.579790386207000852e-01
4.700000000000000178e+00 5.553555805079126717e-01
4.719999999999999751e+00 5.527504421609669150e-01
4.740000000000000213e+00 5.501634285827616822e-01
4.759999999999999787e+00 5.475943358324013577e-01
4.780000000000000249e+00 5.450429752894730973e-01
4.799999999999999822e+00 5.425091495398867147e-01
4.820000000000000284e+00 5.399926760695288319e-01
4.839999999999999858e+00 5.374933637294964095e-01
4.860000000000000320e+00 5.350110358549916567e-01
4.879999999999999893e+00 5.325455073132836503e-01
4.900000000000000355e+00 5.300966070438591915e-01
4.919999999999999929e+00 5.276641556930620203e-01
4.940000000000000391e+00 5.252479875716700164e-01
4.959999999999999964e+00 5.228479288792733382e-01
4.980000000000000426e+00 5.204638190755908056e-01
5.000000000000000000e+00 5.180954896982888913e-01
5.020000000000000462e+00 5.157427851445151035e-01
5.040000000000000036e+00 5.134055420849303886e-01
5.060000000000000497e+00 5.110836096520871008e-01
5.080000000000000071e+00 5.087768294541221703e-01
5.100000000000000533e+00 5.064850551667221534e-01
5.120000000000000107e+00 5.042081331490253504e-01
5.139999999999999680e+00 5.019459214360578736e-01
5.160000000000000142e+00 4.996982709600635286e-01
5.179999999999999716e+00 4.974650439404217916e-01
5.200000000000000178e+00 4.952460957127098329e-01
5.219999999999999751e+00 4.930412925132436341e-01
5.240000000000000213e+00 4.908504939188738092e-01
5.259999999999999787e+00 4.886735700234016155e-01
5.280000000000000249e+00 4.865103844901943475e-01
5.299999999999999822e+00 4.843608111178543951e-01
5.320000000000000284e+00 4.822247175084473092e-01
5.339999999999999858e+00 4.801019810199189664e-01
5.360000000000000320e+00 4.779924730517972620e-01
5.379999999999999893e+00 4.758960743819479200e-01
5.400000000000000355e+00 4.738126600723868154e-01
5.419999999999999929e+00 4.717421141880445701e-01
5.440000000000000391e+00 4.696843153243761004e-01
5.459999999999999964e+00 4.676391507059275976e-01
5.480000000000000426e+00 4.656065023381908419e-01
5.500000000000000000e+00 4.635862604838551504e-01
5.520000000000000462e+00 4.615783104404023729e-01
5.540000000000000036e+00 4.595825453920233117e-01
5.560000000000000497e+00 4.575988538152483409e-01
5.580000000000000071e+00 4.556271317045773039e-01
5.600000000000000533e+00 4.536672706074917905e-01
5.620000000000000107e+00 4.517191692219290622e-01
5.639999999999999680e+00 4.497827220628377587e-01
5.660000000000000142e+00 4.478578304297100576e-01
5.679999999999999716e+00 4.459443917058635853e-01
5.700000000000000178e+00 4.440423096943164061e-01
5.719999999999999751e+00 4.421514845518418335e-01
5.740000000000000213e+00 4.402718224915274092e-01
5.759999999999999787e+00 4.384032263526618789e-01
5.780000000000000249e+00 4.365456046683899860e-01
5.799999999999999822e+00 4.346988628733688409e-01
5.820000000000000284e+00 4.328629117349931388e-01
5.839999999999999858e+00 4.310376591997452378e-01
5.860000000000000320e+00 4.292230181865270278e-01
5.879999999999999893e+00 4.274188990735556248e-01
5.900000000000000355e+00 4.256252168523679824e-01
5.919999999999999929e+00 4.238418842560993660e-01
5.940000000000000391e+00 4.220688182727878046e-01
5.959999999999999964e+00 4.203059339168032649e-01
5.980000000000000426e+00 4.185531501001135135e-01
6.000000000000000000e+00 4.168103840476261035e-01
6.020000000000000462e+00 4.150775565251118571e-01
6.040000000000000036e+00 4.133545869001632456e-01
6.060000000000000497e+00 4.116413977255204415e-01
6.080000000000000071e+00 4.099379104463312107e-01
6.100000000000000533e+00 4.082440493376416346e-01
6.120000000000000107e+00 4.065597378596195188e-01
6.140000000000000568e+00 4.048849019480088018e-01
6.160000000000000142e+00 4.032194670179402585e-01
6.179999999999999716e+00 4.015633606061694838e-01
6.200000000000000178e+00 3.999165100251073635e-01
6.219999999999999751e+00 3.982788443556695701e-01
6.240000000000000213e+00 3.966502927521233790e-01
6.259999999999999787e+00 3.950307857843993742e-01
6.280000000000000249e+00 3.934202543953639886e-01
6.299999999999999822e+00 3.918186305914561074e-01
6.320000000000000284e+00 3.902258470529519907e-01
6.339999999999999858e+00 3.886418371717920706e-01
6.360000000000000320e+00 3.870665353164504108e-01
6.379999999999999893e+00 3.854998762158307613e-01
6.400000000000000355e+00 3.839417958792907259e-01
6.419999999999999929e+00 3.823922303254699839e-01
6.440000000000000391e+00 3.808511171590993616e-01
6.459999999999999964e+00 3.793183936436439474e-01
6.480000000000000426e+00 3.777939989354419104e-01
6.500000000000000000e+00 3.762778714990082096e-01
6.520000000000000462e+00 3.747699520001752105e-01
6.540000000000000036e+00 3.732701800629116828e-01
6.560000000000000497e+00 3.717784978220233794e-01
6.580000000000000071e+00 3.702948460203206449e-01
6.600000000000000533e+00 3.688191682225875900e-01
6.620000000000000107e+00 3.673514062519148693e-01
6.640000000000000568e+00 3.658915050655285328e-01
6.660000000000000142e+00 3.644394075290743884e-01
6.679999999999999716e+00 3.629950599560832214e-01
6.700000000000000178e+00 3.615584062189759473e-01
6.719999999999999751e+00 3.601293939527920318e-01
6.740000000000000213e+00 3.587079680016587724e-01
6.759999999999999787e+00 3.572940772886120664e-01
6.780000000000000249e+00 3.558876675962482361e-01
6.799999999999999822e+00 3.544886891033303677e-01
6.820000000000000284e+00 3.530970884982752023e-01
6.839999999999999858e+00 3.517128171844888240e-01
6.860000000000000320e+00 3.503358227253050017e-01
6.879999999999999893e+00 3.489660577188155033e-01
6.900000000000000355e+00 3.476034705728607843e-01
6.919999999999999929e+00 3.462480150513601029e-01
6.940000000000000391e+00 3.448996403778976649e-01
6.959999999999999964e+00 3.435583014544066893e-01
6.980000000000000426e+00 3.422239482918417175e-01
7.000000000000000000e+00 3.408965369033502557e-01
7.020000000000000462e+00 3.395760180604628364e-01
7.040000000000000036e+00 3.382623488617043095e-01
7.060000000000000497e+00 3.369554808126817291e-01
7.080000000000000071e+00 3.356553720723901568e-01
7.100000000000000533e+00 3.343619748555293203e-01
7.120000000000000107e+00 3.330752483575561973e-01
7.140000000000000568e+00 3.317951454774800135e-01
7.160000000000000142e+00 3.305216264240707913e-01
7.179999999999999716e+00 3.292546447573243551e-01
7.200000000000000178e+00 3.279941616770014057e-01
7.219999999999999751e+00 3.267401313808800944e-01
7.240000000000000213e+00 3.254925160381901272e-01
7.259999999999999787e+00 3.242512704626976383e-01
7.280000000000000249e+00 3.230163577723410007e-01
7.299999999999999822e+00 3.217877333751176239e-01
7.320000000000000284e+00 3.205653613176564498e-01
7.339999999999999858e+00 3.193491975818004147e-01
7.360000000000000320e+00 3.181392071235619734e-01
7.379999999999999893e+00 3.169353464782045382e-01
7.400000000000000355e+00 3.157375814925037494e-01
7.419999999999999929e+00 3.145458692360428299e-01
7.440000000000000391e+00 3.133601764284001390e-01
7.459999999999999964e+00 3.121804606542812888e-01
7.480000000000000426e+00 3.110066894887436595e-01
7.500000000000000000e+00 3.098388210137039134e-01
7.520000000000000462e+00 3.086768236429865420e-01
7.540000000000000036e+00 3.075206559376513771e-01
7.560000000000000497e+00 3.063702871341764666e-01
7.580000000000000071e+00 3.052256762559381054e-01
7.600000000000000533e+00 3.040867933465205564e-01
7.620000000000000107e+00 3.029535978745830360e-01
7.640000000000000568e+00 3.018260606758270126e-01
7.660000000000000142e+00 3.007041416483798302e-01
7.679999999999999716e+00 2.995878124055988412e-01
7.700000000000000178e+00 2.984770332589875563e-01
7.719999999999999751e+00 2.973717765856173645e-01
7.740000000000000213e+00 2.962720030954796302e-01
7.759999999999999787e+00 2.951776859159168653e-01
7.780000000000000249e+00 2.940887861401865755e-01
7.799999999999999822e+00 2.930052776329366004e-01
7.820000000000000284e+00 2.919271218566562021e-01
7.839999999999999858e+00 2.908542934008005454e-01
7.860000000000000320e+00 2.897867540826655763e-01
7.879999999999999893e+00 2.887244792044705854e-01
