# Electrodo circular de radio 6 mm y espesor 710.0 um.
# Volumen de simulacion (convencion z,y,x):
# N: 1024 x 1024 x 1024 | voxelSize:  0.02mm x 0.02mm x 0.02mm | FOV:  20.48mm x 20.48mm x 20.48mm
# 
# z [mm]		 delta[ppm]
0.000000000000000000e+00 3.091772570553970034e+00
2.000000000000000042e-02 3.083341328105597690e+00
4.000000000000000083e-02 3.074689148494919699e+00
5.999999999999999778e-02 3.065820398217812048e+00
8.000000000000000167e-02 3.056739545606239172e+00
1.000000000000000056e-01 3.047451121727451806e+00
1.199999999999999956e-01 3.037959711045124411e+00
1.400000000000000133e-01 3.028269954780404838e+00
1.600000000000000033e-01 3.018386539914248434e+00
1.799999999999999933e-01 3.008314200583728670e+00
2.000000000000000111e-01 2.998057706353607799e+00
2.200000000000000011e-01 2.987621864427113749e+00
2.399999999999999911e-01 2.977011506990676182e+00
2.600000000000000089e-01 2.966231494420675130e+00
2.800000000000000266e-01 2.955286701907635205e+00
2.999999999999999889e-01 2.944182023500697909e+00
3.200000000000000067e-01 2.932922358296576881e+00
3.400000000000000244e-01 2.921512615230083654e+00
3.599999999999999867e-01 2.909957698856992625e+00
3.800000000000000044e-01 2.898262514859804462e+00
4.000000000000000222e-01 2.886431955566873153e+00
4.199999999999999845e-01 2.874470906149615423e+00
4.400000000000000022e-01 2.862384229877324326e+00
4.600000000000000200e-01 2.850176775003012697e+00
4.799999999999999822e-01 2.837853359840140754e+00
5.000000000000000000e-01 2.825418780329720825e+00
5.200000000000000178e-01 2.812877794933752007e+00
5.400000000000000355e-01 2.800235132884172362e+00
5.600000000000000533e-01 2.787495478949959082e+00
5.799999999999999600e-01 2.774663482362709654e+00
5.999999999999999778e-01 2.761743741450646716e+00
6.199999999999999956e-01 2.748740813238508274e+00
6.400000000000000133e-01 2.735659197986934466e+00
6.600000000000000311e-01 2.722503349459104438e+00
6.800000000000000488e-01 2.709277659357091306e+00
7.000000000000000666e-01 2.695986468248371182e+00
7.199999999999999734e-01 2.682634049924715214e+00
7.399999999999999911e-01 2.669224622977239836e+00
7.600000000000000089e-01 2.655762335067632041e+00
7.800000000000000266e-01 2.642251275140229616e+00
8.000000000000000444e-01 2.628695457621672116e+00
8.200000000000000622e-01 2.615098835254832110e+00
8.399999999999999689e-01 2.601465283215079971e+00
8.599999999999999867e-01 2.587798612550481714e+00
8.800000000000000044e-01 2.574102554223724582e+00
9.000000000000000222e-01 2.560380773140157995e+00
9.200000000000000400e-01 2.546636852102355686e+00
9.400000000000000577e-01 2.532874306407123299e+00
9.599999999999999645e-01 2.519096567716776036e+00
9.799999999999999822e-01 2.505306999204171436e+00
1.000000000000000000e+00 2.491508879327032577e+00
1.020000000000000018e+00 2.477705417499842522e+00
1.040000000000000036e+00 2.463899737771882759e+00
1.060000000000000053e+00 2.450094895003427364e+00
1.080000000000000071e+00 2.436293858433808524e+00
1.100000000000000089e+00 2.422499528339372876e+00
1.120000000000000107e+00 2.408714719490224088e+00
1.140000000000000124e+00 2.394942178266513899e+00
1.159999999999999920e+00 2.381184565990826840e+00
1.179999999999999938e+00 2.367444476479720006e+00
1.199999999999999956e+00 2.353724419249420219e+00
1.219999999999999973e+00 2.340026837479119770e+00
1.239999999999999991e+00 2.326354091078104869e+00
1.260000000000000009e+00 2.312708475037851930e+00
1.280000000000000027e+00 2.299092202358171910e+00
1.300000000000000044e+00 2.285507422765118868e+00
1.320000000000000062e+00 2.271956205485855307e+00
1.340000000000000080e+00 2.258440558310087276e+00
1.360000000000000098e+00 2.244962410211812642e+00
1.380000000000000115e+00 2.231523630732223928e+00
1.400000000000000133e+00 2.218126012439932904e+00
1.419999999999999929e+00 2.204771290614137236e+00
1.439999999999999947e+00 2.191461125542467414e+00
1.459999999999999964e+00 2.178197122483630288e+00
1.479999999999999982e+00 2.164980813796534065e+00
1.500000000000000000e+00 2.151813679162513537e+00
1.520000000000000018e+00 2.138697127546181687e+00
1.540000000000000036e+00 2.125632517657871201e+00
1.560000000000000053e+00 2.112621139741988507e+00
1.580000000000000071e+00 2.099664236261226336e+00
1.600000000000000089e+00 2.086762983514311998e+00
1.620000000000000107e+00 2.073918512524128399e+00
1.640000000000000124e+00 2.061131890482710283e+00
1.660000000000000142e+00 2.048404141826316138e+00
1.679999999999999938e+00 2.035736229511015960e+00
1.699999999999999956e+00 2.023129076258358694e+00
1.719999999999999973e+00 2.010583545661395632e+00
1.739999999999999991e+00 1.998100463585384956e+00
1.760000000000000009e+00 1.985680599109056921e+00
1.780000000000000027e+00 1.973324686065376588e+00
1.800000000000000044e+00 1.961033403819725462e+00
1.820000000000000062e+00 1.948807398936509117e+00
1.840000000000000080e+00 1.936647265800387929e+00
1.860000000000000098e+00 1.924553568395014791e+00
1.880000000000000115e+00 1.912526820770641622e+00
1.900000000000000133e+00 1.900567508921968685e+00
1.919999999999999929e+00 1.888676071109429255e+00
1.939999999999999947e+00 1.876852919823589483e+00
1.959999999999999964e+00 1.865098421964875408e+00
1.979999999999999982e+00 1.853412920882527404e+00
2.000000000000000000e+00 1.841796716421113977e+00
2.020000000000000018e+00 1.830250087022459171e+00
2.040000000000000036e+00 1.818773269644925472e+00
2.060000000000000053e+00 1.807366481917206391e+00
2.080000000000000071e+00 1.796029901939594664e+00
2.100000000000000089e+00 1.784763690478851306e+00
2.120000000000000107e+00 1.773567970658503690e+00
2.140000000000000124e+00 1.762442850184401166e+00
2.160000000000000142e+00 1.751388400933957090e+00
2.180000000000000160e+00 1.740404681202274872e+00
2.200000000000000178e+00 1.729491715198214319e+00
2.220000000000000195e+00 1.718649515301287289e+00
2.240000000000000213e+00 1.707878061475039067e+00
2.260000000000000231e+00 1.697177323525106640e+00
2.280000000000000249e+00 1.686547240438465156e+00
2.300000000000000266e+00 1.675987742633327615e+00
2.319999999999999840e+00 1.665498731235142138e+00
2.339999999999999858e+00 1.655080100309147095e+00
2.359999999999999876e+00 1.644731716082210582e+00
2.379999999999999893e+00 1.634453439149046394e+00
2.399999999999999911e+00 1.624245103651085653e+00
2.419999999999999929e+00 1.614106539447475397e+00
2.439999999999999947e+00 1.604037551260473871e+00
2.459999999999999964e+00 1.594037940802483400e+00
2.479999999999999982e+00 1.584107485899367562e+00
2.500000000000000000e+00 1.574245962564853496e+00
2.520000000000000018e+00 1.564453124111539584e+00
2.540000000000000036e+00 1.554728723164115589e+00
2.560000000000000053e+00 1.545072490769558105e+00
2.580000000000000071e+00 1.535484158340657102e+00
2.600000000000000089e+00 1.525963436775358284e+00
2.620000000000000107e+00 1.516510038322164577e+00
2.640000000000000124e+00 1.507123655720160604e+00
2.660000000000000142e+00 1.497803983977873399e+00
2.680000000000000160e+00 1.488550699544062494e+00
2.700000000000000178e+00 1.479363481991670115e+00
2.720000000000000195e+00 1.470241993230898325e+00
2.740000000000000213e+00 1.461185899089888718e+00
2.760000000000000231e+00 1.452194848580213193e+00
2.780000000000000249e+00 1.443268495365964688e+00
2.800000000000000266e+00 1.434406477093119969e+00
2.819999999999999840e+00 1.425608436738698526e+00
2.839999999999999858e+00 1.416874002014128164e+00
2.859999999999999876e+00 1.408202806586170919e+00
2.879999999999999893e+00 1.399594469565642374e+00
2.899999999999999911e+00 1.391048616591781029e+00
2.919999999999999929e+00 1.382564859416418823e+00
2.939999999999999947e+00 1.374142816843465509e+00
2.959999999999999964e+00 1.365782094419766057e+00
2.979999999999999982e+00 1.357482305221390018e+00
3.000000000000000000e+00 1.349243049661177141e+00
3.020000000000000018e+00 1.341063936113512600e+00
3.040000000000000036e+00 1.332944560849652404e+00
3.060000000000000053e+00 1.324884528492638269e+00
3.080000000000000071e+00 1.316883432090337092e+00
3.100000000000000089e+00 1.308940873392150817e+00
3.120000000000000107e+00 1.301056443070701230e+00
3.140000000000000124e+00 1.293229740811987050e+00
3.160000000000000142e+00 1.285460355695521084e+00
3.180000000000000160e+00 1.277747886089595442e+00
3.200000000000000178e+00 1.270091920200618896e+00
3.220000000000000195e+00 1.262492055765139343e+00
3.240000000000000213e+00 1.254947880778066516e+00
3.260000000000000231e+00 1.247458992973085268e+00
3.280000000000000249e+00 1.240024980740368044e+00
3.300000000000000266e+00 1.232645442387004131e+00
3.320000000000000284e+00 1.225319967253743147e+00
3.339999999999999858e+00 1.218048154747101375e+00
3.359999999999999876e+00 1.210829595665540381e+00
3.379999999999999893e+00 1.203663890994874253e+00
3.399999999999999911e+00 1.196550633453307144e+00
3.419999999999999929e+00 1.189489426041783871e+00
3.439999999999999947e+00 1.182479863818122645e+00
3.459999999999999964e+00 1.175521552193948827e+00
3.479999999999999982e+00 1.168614088947187435e+00
3.500000000000000000e+00 1.161757082257248941e+00
3.520000000000000018e+00 1.154950132965931520e+00
3.540000000000000036e+00 1.148192852342517556e+00
3.560000000000000053e+00 1.141484844602224324e+00
3.580000000000000071e+00 1.134825724392864110e+00
3.600000000000000089e+00 1.128215099580742731e+00
3.620000000000000107e+00 1.121652588450569477e+00
3.640000000000000124e+00 1.115137802767774744e+00
3.660000000000000142e+00 1.108670364683390197e+00
3.680000000000000160e+00 1.102249890082484862e+00
3.700000000000000178e+00 1.095876005185716151e+00
3.720000000000000195e+00 1.089548330192758208e+00
3.740000000000000213e+00 1.083266495572256627e+00
3.760000000000000231e+00 1.077030126009772326e+00
3.780000000000000249e+00 1.070838856377900772e+00
3.800000000000000266e+00 1.064692315997447514e+00
3.820000000000000284e+00 1.058590144279485834e+00
3.839999999999999858e+00 1.052531975309145107e+00
3.859999999999999876e+00 1.046517453151402322e+00
3.879999999999999893e+00 1.040546216766049081e+00
3.899999999999999911e+00 1.034617914969054198e+00
3.919999999999999929e+00 1.028732191687929065e+00
3.939999999999999947e+00 1.022888700570504739e+00
3.959999999999999964e+00 1.017087090589145149e+00
3.979999999999999982e+00 1.011327020288795620e+00
4.000000000000000000e+00 1.005608143749140870e+00
4.020000000000000462e+00 9.999301244638265640e-01
4.040000000000000036e+00 9.942926216688460217e-01
4.060000000000000497e+00 9.886953038448909048e-01
4.080000000000000071e+00 9.831378354208953896e-01
4.099999999999999645e+00 9.776198898914809643e-01
4.120000000000000107e+00 9.721411369038294170e-01
4.139999999999999680e+00 9.667012549822027179e-01
4.160000000000000142e+00 9.612999190069793087e-01
4.179999999999999716e+00 9.559368125382544656e-01
4.200000000000000178e+00 9.506116156950740192e-01
4.219999999999999751e+00 9.453240170702041922e-01
4.240000000000000213e+00 9.400737020182202697e-01
4.259999999999999787e+00 9.348603641535278008e-01
4.280000000000000249e+00 9.296836940552510864e-01
4.299999999999999822e+00 9.245433903406179432e-01
4.320000000000000284e+00 9.194391487952013886e-01
4.339999999999999858e+00 9.143706730138169148e-01
4.360000000000000320e+00 9.093376639639434433e-01
4.379999999999999893e+00 9.043398301863344591e-01
4.400000000000000355e+00 8.993768778000138520e-01
4.419999999999999929e+00 8.944485202548352332e-01
4.440000000000000391e+00 8.895544687857780408e-01
4.459999999999999964e+00 8.846944417096964663e-01
4.480000000000000426e+00 8.798681553372480479e-01
4.500000000000000000e+00 8.750753328060912883e-01
4.520000000000000462e+00 8.703156954580700821e-01
4.540000000000000036e+00 8.655889712012012627e-01
4.560000000000000497e+00 8.608948863602995383e-01
4.580000000000000071e+00 8.562331735601015348e-01
4.600000000000000533e+00 8.516035640568669907e-01
4.620000000000000107e+00 8.470057951350143943e-01
4.639999999999999680e+00 8.424396029278121700e-01
4.660000000000000142e+00 8.379047293199313184e-01
4.679999999999999716e+00 8.334009152646585372e-01
4.700000000000000178e+00 8.289279071848157932e-01
4.719999999999999751e+00 8.244854507945084121e-01
4.740000000000000213e+00 8.200732969908799408e-01
4.759999999999999787e+00 8.156911961877528761e-01
4.780000000000000249e+00 8.113389036907073804e-01
4.799999999999999822e+00 8.070161745505589623e-01
4.820000000000000284e+00 8.027227684142916875e-01
4.839999999999999858e+00 7.984584449056328914e-01
4.860000000000000320e+00 7.942229679444019474e-01
4.879999999999999893e+00 7.900161016620431687e-01
4.900000000000000355e+00 7.858376141819625182e-01
4.919999999999999929e+00 7.816872740772321526e-01
4.940000000000000391e+00 7.775648536045102199e-01
4.959999999999999964e+00 7.734701257117141404e-01
4.980000000000000426e+00 7.694028667181339598e-01
5.000000000000000000e+00 7.653628538792368596e-01
5.020000000000000462e+00 7.613498675056239451e-01
5.040000000000000036e+00 7.573636890926723764e-01
5.060000000000000497e+00 7.534041028710174448e-01
5.080000000000000071e+00 7.494708945081295370e-01
5.100000000000000533e+00 7.455638520829915850e-01
5.120000000000000107e+00 7.416827653673001564e-01
5.139999999999999680e+00 7.378274262170305686e-01
5.160000000000000142e+00 7.339976284403210149e-01
5.179999999999999716e+00 7.301931675986325088e-01
5.200000000000000178e+00 7.264138414689532697e-01
5.219999999999999751e+00 7.226594492472806497e-01
5.240000000000000213e+00 7.189297926121669402e-01
5.259999999999999787e+00 7.152246743232508752e-01
5.280000000000000249e+00 7.115438998937489989e-01
5.299999999999999822e+00 7.078872755767935399e-01
5.320000000000000284e+00 7.042546106538484230e-01
5.339999999999999858e+00 7.006457148016154157e-01
5.360000000000000320e+00 6.970604010039450626e-01
5.379999999999999893e+00 6.934984822920692293e-01
5.400000000000000355e+00 6.899597752869910394e-01
5.419999999999999929e+00 6.864440963057972800e-01
5.440000000000000391e+00 6.829512655420907352e-01
5.459999999999999964e+00 6.794811025311429109e-01
5.480000000000000426e+00 6.760334309753421866e-01
5.500000000000000000e+00 6.726080735609482053e-01
5.520000000000000462e+00 6.692048574360989210e-01
5.540000000000000036e+00 6.658236083719422105e-01
5.560000000000000497e+00 6.624641569001651353e-01
5.580000000000000071e+00 6.591263318112493552e-01
5.600000000000000533e+00 6.558099669590876646e-01
5.620000000000000107e+00 6.525148940891122296e-01
5.639999999999999680e+00 6.492409503169761509e-01
5.660000000000000142e+00 6.459879702792896694e-01
5.679999999999999716e+00 6.427557942939351454e-01
5.700000000000000178e+00 6.395442598261446010e-01
5.719999999999999751e+00 6.363532103374488491e-01
5.740000000000000213e+00 6.331824860598007643e-01
5.759999999999999787e+00 6.300319335407540411e-01
5.780000000000000249e+00 6.269013957183332542e-01
5.799999999999999822e+00 6.237907221694700688e-01
5.820000000000000284e+00 6.206997584782993904e-01
5.839999999999999858e+00 6.176283571954689355e-01
5.860000000000000320e+00 6.145763664925281144e-01
5.879999999999999893e+00 6.115436418391864137e-01
5.900000000000000355e+00 6.085300339364142497e-01
5.919999999999999929e+00 6.055354011193273545e-01
5.940000000000000391e+00 6.025595965616069583e-01
5.959999999999999964e+00 5.996024814111304835e-01
5.980000000000000426e+00 5.966639112582805549e-01
6.000000000000000000e+00 5.937437500120631428e-01
6.020000000000000462e+00 5.908418556248448139e-01
6.040000000000000036e+00 5.879580947161332505e-01
6.060000000000000497e+00 5.850923275462547313e-01
6.080000000000000071e+00 5.822444233956058923e-01
6.100000000000000533e+00 5.794142447797347995e-01
6.120000000000000107e+00 5.766016635913152610e-01
6.140000000000000568e+00 5.738065445490631022e-01
6.160000000000000142e+00 5.710287621103172784e-01
6.179999999999999716e+00 5.682681831461818822e-01
6.200000000000000178e+00 5.655246846320498566e-01
6.219999999999999751e+00 5.627981355412915443e-01
6.240000000000000213e+00 5.600884153217237094e-01
6.259999999999999787e+00 5.573953950001340196e-01
6.280000000000000249e+00 5.547189564521092242e-01
6.299999999999999822e+00 5.520589727096396615e-01
6.320000000000000284e+00 5.494153280324001187e-01
6.339999999999999858e+00 5.467878974106111789e-01
6.360000000000000320e+00 5.441765674453101775e-01
6.379999999999999893e+00 5.415812150385911350e-01
6.400000000000000355e+00 5.390017290910795733e-01
6.419999999999999929e+00 5.364379883716041686e-01
6.440000000000000391e+00 5.338898840395330803e-01
6.459999999999999964e+00 5.313572966858813862e-01
6.480000000000000426e+00 5.288401196888459221e-01
6.500000000000000000e+00 5.263382354182680745e-01
6.520000000000000462e+00 5.238515394321654473e-01
6.540000000000000036e+00 5.213799158364037512e-01
6.560000000000000497e+00 5.189232623307115100e-01
6.580000000000000071e+00 5.164814647153469496e-01
6.600000000000000533e+00 5.140544227945282874e-01
6.620000000000000107e+00 5.116420240217929294e-01
6.640000000000000568e+00 5.092441702694974204e-01
6.660000000000000142e+00 5.068607506044839894e-01
6.679999999999999716e+00 5.044916689317513470e-01
6.700000000000000178e+00 5.021368158919670144e-01
6.719999999999999751e+00 4.997960973881188651e-01
6.740000000000000213e+00 4.974694055963326811e-01
6.759999999999999787e+00 4.951566483837602783e-01
6.780000000000000249e+00 4.928577194240659765e-01
6.799999999999999822e+00 4.905725285155637105e-01
6.820000000000000284e+00 4.883009707926193599e-01
6.839999999999999858e+00 4.860429579525067378e-01
6.860000000000000320e+00 4.837983865538750816e-01
6.879999999999999893e+00 4.815671701615340528e-01
6.900000000000000355e+00 4.793492067230659126e-01
6.919999999999999929e+00 4.771444116401706292e-01
6.940000000000000391e+00 4.749526842143799721e-01
6.959999999999999964e+00 4.727739416543939033e-01
6.980000000000000426e+00 4.706080845817482983e-01
7.000000000000000000e+00 4.684550319830053655e-01
7.020000000000000462e+00 4.663146857660948608e-01
7.040000000000000036e+00 4.641869666670268568e-01
7.060000000000000497e+00 4.620717778475283977e-01
7.080000000000000071e+00 4.599690417653598540e-01
7.100000000000000533e+00 4.578786628037489481e-01
7.120000000000000107e+00 4.558005651152161608e-01
7.140000000000000568e+00 4.537346542731732213e-01
7.160000000000000142e+00 4.516808560985988152e-01
7.179999999999999716e+00 4.496390773240422911e-01
7.200000000000000178e+00 4.476092454133123177e-01
7.219999999999999751e+00 4.455912682280024351e-01
7.240000000000000213e+00 4.435850748497921492e-01
7.259999999999999787e+00 4.415905742394600209e-01
7.280000000000000249e+00 4.396076970722410659e-01
7.299999999999999822e+00 4.376363533791657878e-01
7.320000000000000284e+00 4.356764754053501498e-01
7.339999999999999858e+00 4.337279742233514646e-01
7.360000000000000320e+00 4.317907836251173581e-01
7.379999999999999893e+00 4.298648156969011036e-01
7.400000000000000355e+00 4.279500057550464920e-01
7.419999999999999929e+00 4.260462668718411061e-01
7.440000000000000391e+00 4.241535358661894239e-01
7.459999999999999964e+00 4.222717267696329269e-01
7.480000000000000426e+00 4.204007778823899977e-01
7.500000000000000000e+00 4.185406041686107748e-01
7.520000000000000462e+00 4.166911453891526396e-01
7.540000000000000036e+00 4.148523174149922332e-01
7.560000000000000497e+00 4.130240614475269578e-01
7.580000000000000071e+00 4.112062942388619025e-01
7.600000000000000533e+00 4.093989584113807978e-01
7.620000000000000107e+00 4.076019715734763849e-01
7.640000000000000568e+00 4.058152777495175889e-01
7.660000000000000142e+00 4.040387953793990183e-01
7.679999999999999716e+00 4.022724698710002378e-01
7.700000000000000178e+00 4.005162204717538921e-01
7.719999999999999751e+00 3.987699939551046513e-01
7.740000000000000213e+00 3.970337103520935051e-01
7.759999999999999787e+00 3.953073177842967301e-01
7.780000000000000249e+00 3.935907370432366048e-01
7.799999999999999822e+00 3.918839175816858367e-01
7.820000000000000284e+00 3.901867809285282096e-01
7.839999999999999858e+00 3.884992778512936229e-01
7.860000000000000320e+00 3.868213305938841273e-01
7.879999999999999893e+00 3.851528912226372947e-01
