# Electrodo circular de radio 6 mm y espesor 710.0 um.
# Volumen de simulacion (convencion z,y,x):
# N: 1024 x 1024 x 1024 | voxelSize:  0.02mm x 0.02mm x 0.02mm | FOV:  20.48mm x 20.48mm x 20.48mm
# 
# z [mm]		 delta[ppm]
0.000000000000000000e+00 6.245113647086754760e+00
2.000000000000000042e-02 6.035022148757111182e+00
4.000000000000000083e-02 5.826356587180933744e+00
5.999999999999999778e-02 5.620413174226028374e+00
8.000000000000000167e-02 5.418377935404651069e+00
1.000000000000000056e-01 5.221289309934317835e+00
1.199999999999999956e-01 5.030017347521735793e+00
1.400000000000000133e-01 4.845254316585809740e+00
1.600000000000000033e-01 4.667516281687914770e+00
1.799999999999999933e-01 4.497152782472786825e+00
2.000000000000000111e-01 4.334362825807890118e+00
2.200000000000000011e-01 4.179214365817546017e+00
2.399999999999999911e-01 4.031665484334813421e+00
2.600000000000000089e-01 3.891585366075774655e+00
2.800000000000000266e-01 3.758774063626231232e+00
2.999999999999999889e-01 3.632980183946263875e+00
3.200000000000000067e-01 3.513916226649554275e+00
3.400000000000000244e-01 3.401271417631388960e+00
3.599999999999999867e-01 3.294722180455543992e+00
3.800000000000000044e-01 3.193940434669231720e+00
4.000000000000000222e-01 3.098599998010286516e+00
4.199999999999999845e-01 3.008381386787512657e+00
4.400000000000000022e-01 2.922975272889359655e+00
4.600000000000000200e-01 2.842084881868446100e+00
4.799999999999999822e-01 2.765427515235109990e+00
5.000000000000000000e-01 2.692735435106153652e+00
5.200000000000000178e-01 2.623756212961762646e+00
5.400000000000000355e-01 2.558252733734021511e+00
5.600000000000000533e-01 2.496002889094966815e+00
5.799999999999999600e-01 2.436799115970654128e+00
5.999999999999999778e-01 2.380447763401130956e+00
6.199999999999999956e-01 2.326768421165588574e+00
6.400000000000000133e-01 2.275593157319853344e+00
6.600000000000000311e-01 2.226765785725162150e+00
6.800000000000000488e-01 2.180141085685732172e+00
7.000000000000000666e-01 2.135584089408486541e+00
7.199999999999999734e-01 2.092969341932030769e+00
7.399999999999999911e-01 2.052180248475443669e+00
7.600000000000000089e-01 2.013108401361072275e+00
7.800000000000000266e-01 1.975653003327932700e+00
8.000000000000000444e-01 1.939720270126129575e+00
8.200000000000000622e-01 1.905222932647008482e+00
8.399999999999999689e-01 1.872079714270348028e+00
8.599999999999999867e-01 1.840214907821143386e+00
8.800000000000000044e-01 1.809557921935460278e+00
9.000000000000000222e-01 1.780042925730665582e+00
9.200000000000000400e-01 1.751608456551210224e+00
9.400000000000000577e-01 1.724197124192949904e+00
9.599999999999999645e-01 1.697755271924617615e+00
9.799999999999999822e-01 1.672232732174320446e+00
1.000000000000000000e+00 1.647582533138617356e+00
1.020000000000000018e+00 1.623760698446571560e+00
1.040000000000000036e+00 1.600725992365314543e+00
1.060000000000000053e+00 1.578439756790766646e+00
1.080000000000000071e+00 1.556865688956543980e+00
1.100000000000000089e+00 1.535969709980125275e+00
1.120000000000000107e+00 1.515719769807630124e+00
1.140000000000000124e+00 1.496085742385819373e+00
1.159999999999999920e+00 1.477039253402779195e+00
1.179999999999999938e+00 1.458553597914351130e+00
1.199999999999999956e+00 1.440603587117434081e+00
1.219999999999999973e+00 1.423165484924277191e+00
1.239999999999999991e+00 1.406216870644146688e+00
1.260000000000000009e+00 1.389736591567157564e+00
1.280000000000000027e+00 1.373704638923770149e+00
1.300000000000000044e+00 1.358102114021863427e+00
1.320000000000000062e+00 1.342911115316302251e+00
1.340000000000000080e+00 1.328114716046040922e+00
1.360000000000000098e+00 1.313696860588333015e+00
1.380000000000000115e+00 1.299642351879975122e+00
1.400000000000000133e+00 1.285936755557988809e+00
1.419999999999999929e+00 1.272566395728514932e+00
1.439999999999999947e+00 1.259518265627221023e+00
1.459999999999999964e+00 1.246780030532049111e+00
1.479999999999999982e+00 1.234339943907001524e+00
1.500000000000000000e+00 1.222186856447186054e+00
1.520000000000000018e+00 1.210310136823563365e+00
1.540000000000000036e+00 1.198699686008760201e+00
1.560000000000000053e+00 1.187345861903665423e+00
1.580000000000000071e+00 1.176239498224702640e+00
1.600000000000000089e+00 1.165371832394213270e+00
1.620000000000000107e+00 1.154734528380281011e+00
1.640000000000000124e+00 1.144319607350105406e+00
1.660000000000000142e+00 1.134119473944845025e+00
1.679999999999999938e+00 1.124126849260429495e+00
1.699999999999999956e+00 1.114334800116475899e+00
1.719999999999999973e+00 1.104736674014854314e+00
1.739999999999999991e+00 1.095326131025277983e+00
1.760000000000000009e+00 1.086097080412963267e+00
1.780000000000000027e+00 1.077043714817063735e+00
1.800000000000000044e+00 1.068160448303045129e+00
1.820000000000000062e+00 1.059441952554754263e+00
1.840000000000000080e+00 1.050883096131691730e+00
1.860000000000000098e+00 1.042478982433314494e+00
1.880000000000000115e+00 1.034224889990793317e+00
1.900000000000000133e+00 1.026116311993750196e+00
1.919999999999999929e+00 1.018148897459415281e+00
1.939999999999999947e+00 1.010318492138956081e+00
1.959999999999999964e+00 1.002621080446019830e+00
1.979999999999999982e+00 9.950528275824024327e-01
2.000000000000000000e+00 9.876100221135603041e-01
2.020000000000000018e+00 9.802891191727923781e-01
2.040000000000000036e+00 9.730866836031126788e-01
2.060000000000000053e+00 9.659994341154467534e-01
2.080000000000000071e+00 9.590241869165054833e-01
2.100000000000000089e+00 9.521579007106044656e-01
2.120000000000000107e+00 9.453976207598829840e-01
2.140000000000000124e+00 9.387405246313079710e-01
2.160000000000000142e+00 9.321838666320252376e-01
2.180000000000000160e+00 9.257250242134849039e-01
2.200000000000000178e+00 9.193614427477880824e-01
2.220000000000000195e+00 9.130906825096956059e-01
2.240000000000000213e+00 9.069103637536198859e-01
2.260000000000000231e+00 9.008182142019858230e-01
2.280000000000000249e+00 8.948120144029571010e-01
2.300000000000000266e+00 8.888896456602434215e-01
2.319999999999999840e+00 8.830490356435060084e-01
2.339999999999999858e+00 8.772882067004851292e-01
2.359999999999999876e+00 8.716052217106328159e-01
2.379999999999999893e+00 8.659982327254268641e-01
2.399999999999999911e+00 8.604654270462128718e-01
2.419999999999999929e+00 8.550050761429848212e-01
2.439999999999999947e+00 8.496154819546662962e-01
2.459999999999999964e+00 8.442950260404797902e-01
2.479999999999999982e+00 8.390421160902650222e-01
2.500000000000000000e+00 8.338552352659494016e-01
2.520000000000000018e+00 8.287328889258075426e-01
2.540000000000000036e+00 8.236736541165217140e-01
2.560000000000000053e+00 8.186761265038569046e-01
2.580000000000000071e+00 8.137389699784440822e-01
2.600000000000000089e+00 8.088608638009434637e-01
2.620000000000000107e+00 8.040405522870711641e-01
2.640000000000000124e+00 7.992767921632486505e-01
2.660000000000000142e+00 7.945684022984569328e-01
2.680000000000000160e+00 7.899142112815391581e-01
2.700000000000000178e+00 7.853131071693558729e-01
2.720000000000000195e+00 7.807639852843203387e-01
2.740000000000000213e+00 7.762657979500009464e-01
2.760000000000000231e+00 7.718175025222914210e-01
2.780000000000000249e+00 7.674181110851816534e-01
2.800000000000000266e+00 7.630666387159376063e-01
2.819999999999999840e+00 7.587621531150892107e-01
2.839999999999999858e+00 7.545037231206650485e-01
2.859999999999999876e+00 7.502904682477513632e-01
2.879999999999999893e+00 7.461215074533977809e-01
2.899999999999999911e+00 7.419960085622228085e-01
2.919999999999999929e+00 7.379131372981859727e-01
2.939999999999999947e+00 7.338721065737837668e-01
2.959999999999999964e+00 7.298721257911252591e-01
2.979999999999999982e+00 7.259124499732360070e-01
3.000000000000000000e+00 7.219923293514017848e-01
3.020000000000000018e+00 7.181110583180223550e-01
3.040000000000000036e+00 7.142679253031379849e-01
3.060000000000000053e+00 7.104622615290666632e-01
3.080000000000000071e+00 7.066933911936073009e-01
3.100000000000000089e+00 7.029606800075182127e-01
3.120000000000000107e+00 6.992634856875347138e-01
3.140000000000000124e+00 6.956012062584336908e-01
3.160000000000000142e+00 6.919732308736540327e-01
3.180000000000000160e+00 6.883789878644439586e-01
3.200000000000000178e+00 6.848178958912165548e-01
3.220000000000000195e+00 6.812894117228793789e-01
3.240000000000000213e+00 6.777929817368404386e-01
3.260000000000000231e+00 6.743280894122799518e-01
3.280000000000000249e+00 6.708942071818168040e-01
3.300000000000000266e+00 6.674908436229974873e-01
3.320000000000000284e+00 6.641174956795597994e-01
3.339999999999999858e+00 6.607736955360539177e-01
3.359999999999999876e+00 6.574589632114254956e-01
3.379999999999999893e+00 6.541728531021410165e-01
3.399999999999999911e+00 6.509149069659541098e-01
3.419999999999999929e+00 6.476847001194790954e-01
3.439999999999999947e+00 6.444817948145055153e-01
3.459999999999999964e+00 6.413057860763945461e-01
3.479999999999999982e+00 6.381562554906388129e-01
3.500000000000000000e+00 6.350328166690063503e-01
3.520000000000000018e+00 6.319350694482549491e-01
3.540000000000000036e+00 6.288626449713285993e-01
3.560000000000000053e+00 6.258151603157258158e-01
3.580000000000000071e+00 6.227922631775499873e-01
3.600000000000000089e+00 6.197935869309528778e-01
3.620000000000000107e+00 6.168187949032156725e-01
3.640000000000000124e+00 6.138675358824987605e-01
3.660000000000000142e+00 6.109394879726235406e-01
3.680000000000000160e+00 6.080343145499851332e-01
3.700000000000000178e+00 6.051517076870119860e-01
3.720000000000000195e+00 6.022913445752288153e-01
3.740000000000000213e+00 5.994529305068446723e-01
3.760000000000000231e+00 5.966361557642310132e-01
3.780000000000000249e+00 5.938407381493995274e-01
3.800000000000000266e+00 5.910663803565797680e-01
3.820000000000000284e+00 5.883128120397831395e-01
3.839999999999999858e+00 5.855797476681567915e-01
3.859999999999999876e+00 5.828669281221172671e-01
3.879999999999999893e+00 5.801740790478453480e-01
3.899999999999999911e+00 5.775009519729226160e-01
3.919999999999999929e+00 5.748472831589999110e-01
3.939999999999999947e+00 5.722128342281279645e-01
3.959999999999999964e+00 5.695973515296575140e-01
3.979999999999999982e+00 5.670006062688532911e-01
4.000000000000000000e+00 5.644223543864523851e-01
4.020000000000000462e+00 5.618623761814084405e-01
4.040000000000000036e+00 5.593204367188294723e-01
4.060000000000000497e+00 5.567963249391255642e-01
4.080000000000000071e+00 5.542898145920935882e-01
4.099999999999999645e+00 5.518007028249480861e-01
4.120000000000000107e+00 5.493287716579787761e-01
4.139999999999999680e+00 5.468738260443333221e-01
4.160000000000000142e+00 5.444356558843942429e-01
4.179999999999999716e+00 5.420140735503952145e-01
4.200000000000000178e+00 5.396088764546241867e-01
4.219999999999999751e+00 5.372198840323745284e-01
4.240000000000000213e+00 5.348469008604366248e-01
4.259999999999999787e+00 5.324897530920447153e-01
4.280000000000000249e+00 5.301482521405154191e-01
4.299999999999999822e+00 5.278222305602239262e-01
4.320000000000000284e+00 5.255115062912103507e-01
4.339999999999999858e+00 5.232159179804132254e-01
4.360000000000000320e+00 5.209352898018189126e-01
4.379999999999999893e+00 5.186694662125430622e-01
4.400000000000000355e+00 5.164182773436876150e-01
4.419999999999999929e+00 5.141815731860304162e-01
4.440000000000000391e+00 5.119591895659076908e-01
4.459999999999999964e+00 5.097509817556121758e-01
4.480000000000000426e+00 5.075567910288663054e-01
4.500000000000000000e+00 5.053764776911613410e-01
4.520000000000000462e+00 5.032098882288995600e-01
4.540000000000000036e+00 5.010568877552941114e-01
4.560000000000000497e+00 4.989173277470861367e-01
4.580000000000000071e+00 4.967910779017421508e-01
4.600000000000000533e+00 4.946779944756094505e-01
4.620000000000000107e+00 4.925779515484718374e-01
4.639999999999999680e+00 4.904908099564595503e-01
4.660000000000000142e+00 4.884164479601574849e-01
4.679999999999999716e+00 4.863547307859154567e-01
4.700000000000000178e+00 4.843055406940310892e-01
4.719999999999999751e+00 4.822687471211676291e-01
4.740000000000000213e+00 4.802442361452369246e-01
4.759999999999999787e+00 4.782318812424002363e-01
4.780000000000000249e+00 4.762315721455844253e-01
4.799999999999999822e+00 4.742431862081909477e-01
4.820000000000000284e+00 4.722666166532845100e-01
4.839999999999999858e+00 4.703017445573181576e-01
4.860000000000000320e+00 4.683484664873369119e-01
4.879999999999999893e+00 4.664066670962594419e-01
4.900000000000000355e+00 4.644762461455236857e-01
4.919999999999999929e+00 4.625570917251042302e-01
4.940000000000000391e+00 4.606491066593185191e-01
4.959999999999999964e+00 4.587521823425594336e-01
4.980000000000000426e+00 4.568662245260352583e-01
5.000000000000000000e+00 4.549911277823036615e-01
5.020000000000000462e+00 4.531268006710286733e-01
5.040000000000000036e+00 4.512731408227154128e-01
5.060000000000000497e+00 4.494300594816233452e-01
5.080000000000000071e+00 4.475974572216984138e-01
5.100000000000000533e+00 4.457752478650376382e-01
5.120000000000000107e+00 4.439633348199085727e-01
5.139999999999999680e+00 4.421616343732098775e-01
5.160000000000000142e+00 4.403700526635108692e-01
5.179999999999999716e+00 4.385885083462276457e-01
5.200000000000000178e+00 4.368169101910347463e-01
5.219999999999999751e+00 4.350551791185063299e-01
5.240000000000000213e+00 4.333032264347968510e-01
5.259999999999999787e+00 4.315609752387480347e-01
5.280000000000000249e+00 4.298283392826866556e-01
5.299999999999999822e+00 4.281052437490279750e-01
5.320000000000000284e+00 4.263916047500617146e-01
5.339999999999999858e+00 4.246873494733395260e-01
5.360000000000000320e+00 4.229923963087883210e-01
5.379999999999999893e+00 4.213066743621589616e-01
5.400000000000000355e+00 4.196301042223763988e-01
5.419999999999999929e+00 4.179626168425600308e-01
5.440000000000000391e+00 4.163041349354766885e-01
5.459999999999999964e+00 4.146545912216506591e-01
5.480000000000000426e+00 4.130139104658525073e-01
5.500000000000000000e+00 4.113820270920476863e-01
5.520000000000000462e+00 4.097588678483088387e-01
5.540000000000000036e+00 4.081443687883423710e-01
5.560000000000000497e+00 4.065384585778147875e-01
5.580000000000000071e+00 4.049410748424120410e-01
5.600000000000000533e+00 4.033521481025188482e-01
5.620000000000000107e+00 4.017716174877306590e-01
5.639999999999999680e+00 4.001994153129713738e-01
5.660000000000000142e+00 3.986354821596059805e-01
5.679999999999999716e+00 3.970797520794741575e-01
5.700000000000000178e+00 3.955321670427134340e-01
5.719999999999999751e+00 3.939926627829015149e-01
5.740000000000000213e+00 3.924611826118961089e-01
5.759999999999999787e+00 3.909376638921452929e-01
5.780000000000000249e+00 3.894220512188026895e-01
5.799999999999999822e+00 3.879142835325296024e-01
5.820000000000000284e+00 3.864143066693521700e-01
5.839999999999999858e+00 3.849220610995792158e-01
5.860000000000000320e+00 3.834374938458058324e-01
5.879999999999999893e+00 3.819605468614321597e-01
5.900000000000000355e+00 3.804911683174042603e-01
5.919999999999999929e+00 3.790293016055544806e-01
5.940000000000000391e+00 3.775748959945990912e-01
5.959999999999999964e+00 3.761278962719647456e-01
5.980000000000000426e+00 3.746882527697469878e-01
6.000000000000000000e+00 3.732559116298560520e-01
6.020000000000000462e+00 3.718308242005519126e-01
6.040000000000000036e+00 3.704129379387659515e-01
6.060000000000000497e+00 3.690022051780277312e-01
6.080000000000000071e+00 3.675985746524053632e-01
6.100000000000000533e+00 3.662019996365185048e-01
6.120000000000000107e+00 3.648124301051861584e-01
6.140000000000000568e+00 3.634298202464195660e-01
6.160000000000000142e+00 3.620541212408376341e-01
6.179999999999999716e+00 3.606852881484091111e-01
6.200000000000000178e+00 3.593232733219715591e-01
6.219999999999999751e+00 3.579680326686749958e-01
6.240000000000000213e+00 3.566195196813016222e-01
6.259999999999999787e+00 3.552776910752301065e-01
6.280000000000000249e+00 3.539425014521632717e-01
6.299999999999999822e+00 3.526139083136146102e-01
6.320000000000000284e+00 3.512918673403779835e-01
6.339999999999999858e+00 3.499763367833907957e-01
6.360000000000000320e+00 3.486672733738472307e-01
6.379999999999999893e+00 3.473646360924779741e-01
6.400000000000000355e+00 3.460683826932846596e-01
6.419999999999999929e+00 3.447784728521056108e-01
6.440000000000000391e+00 3.434948653191943757e-01
6.459999999999999964e+00 3.422175204481344712e-01
6.480000000000000426e+00 3.409463979598829630e-01
6.500000000000000000e+00 3.396814588529118994e-01
6.520000000000000462e+00 3.384226637942857607e-01
6.540000000000000036e+00 3.371699744120869591e-01
6.560000000000000497e+00 3.359233522958099960e-01
6.580000000000000071e+00 3.346827596719461062e-01
6.600000000000000533e+00 3.334481590296229370e-01
6.620000000000000107e+00 3.322195131803885038e-01
6.640000000000000568e+00 3.309967854910449980e-01
6.660000000000000142e+00 3.297799393284843728e-01
6.679999999999999716e+00 3.285689389160321161e-01
6.700000000000000178e+00 3.273637481643525415e-01
6.719999999999999751e+00 3.261643321329158463e-01
6.740000000000000213e+00 3.249706552477992783e-01
6.759999999999999787e+00 3.237826833849772323e-01
6.780000000000000249e+00 3.226003814760105559e-01
6.799999999999999822e+00 3.214237161944586973e-01
6.820000000000000284e+00 3.202526529502102703e-01
6.839999999999999858e+00 3.190871591961723652e-01
6.860000000000000320e+00 3.179272008121591941e-01
6.879999999999999893e+00 3.167727460128341721e-01
6.900000000000000355e+00 3.156237611218812855e-01
6.919999999999999929e+00 3.144802150987669465e-01
6.940000000000000391e+00 3.133420747040594478e-01
6.959999999999999964e+00 3.122093096256736700e-01
6.980000000000000426e+00 3.110818870359793320e-01
7.000000000000000000e+00 3.099597773355748376e-01
7.020000000000000462e+00 3.088429481029663637e-01
7.040000000000000036e+00 3.077313704362236724e-01
7.060000000000000497e+00 3.066250122957814850e-01
7.080000000000000071e+00 3.055238454625047173e-01
7.100000000000000533e+00 3.044278382743271227e-01
7.120000000000000107e+00 3.033369631807546485e-01
7.140000000000000568e+00 3.022511888737865471e-01
7.160000000000000142e+00 3.011704884579108343e-01
7.179999999999999716e+00 3.000948309759146060e-01
7.200000000000000178e+00 2.990241901740870456e-01
7.219999999999999751e+00 2.979585354232609506e-01
7.240000000000000213e+00 2.968978410988101779e-01
7.259999999999999787e+00 2.958420768974153181e-01
7.280000000000000249e+00 2.947912178112555570e-01
7.299999999999999822e+00 2.937452338407272601e-01
7.320000000000000284e+00 2.927041005829686404e-01
7.339999999999999858e+00 2.916677883409081184e-01
7.360000000000000320e+00 2.906362733052075820e-01
7.379999999999999893e+00 2.896095260597326693e-01
7.400000000000000355e+00 2.885875233776323823e-01
7.419999999999999929e+00 2.875702361234706572e-01
7.440000000000000391e+00 2.865576416422299100e-01
7.459999999999999964e+00 2.855497110580496600e-01
7.480000000000000426e+00 2.845464222774608531e-01
7.500000000000000000e+00 2.835477466848380645e-01
7.520000000000000462e+00 2.825536627383297139e-01
7.540000000000000036e+00 2.815641420618342217e-01
7.560000000000000497e+00 2.805791636555374780e-01
7.580000000000000071e+00 2.795986993843579405e-01
7.600000000000000533e+00 2.786227287812658715e-01
7.620000000000000107e+00 2.776512239318359998e-01
7.640000000000000568e+00 2.766841648928979325e-01
7.660000000000000142e+00 2.757215239729870482e-01
7.679999999999999716e+00 2.747632817441710285e-01
7.700000000000000178e+00 2.738094107178661307e-01
7.719999999999999751e+00 2.728598919730642058e-01
7.740000000000000213e+00 2.719146982271285484e-01
7.759999999999999787e+00 2.709738110579492654e-01
7.780000000000000249e+00 2.700372033689977802e-01
7.799999999999999822e+00 2.691048572293159857e-01
7.820000000000000284e+00 2.681767457322755122e-01
7.839999999999999858e+00 2.672528514305982372e-01
7.860000000000000320e+00 2.663331475879052723e-01
7.879999999999999893e+00 2.654176172333931327e-01
