# Electrodo circular de radio 6 mm y espesor 710.0 um.
# Volumen de simulacion (convencion z,y,x):
# N: 1024 x 1024 x 1024 | voxelSize:  0.02mm x 0.02mm x 0.02mm | FOV:  20.48mm x 20.48mm x 20.48mm
# 
# z [mm]		 delta[ppm]
0.000000000000000000e+00 2.363806930463938194e+00
2.000000000000000042e-02 2.361428446263246439e+00
4.000000000000000083e-02 2.358977395907318364e+00
5.999999999999999778e-02 2.356454150461127828e+00
8.000000000000000167e-02 2.353859102113914581e+00
1.000000000000000056e-01 2.351192657474652226e+00
1.199999999999999956e-01 2.348455230692096496e+00
1.400000000000000133e-01 2.345647247860865647e+00
1.600000000000000033e-01 2.342769142916707015e+00
1.799999999999999933e-01 2.339821361347067974e+00
2.000000000000000111e-01 2.336804356244685188e+00
2.200000000000000011e-01 2.333718592027754113e+00
2.399999999999999911e-01 2.330564540312650479e+00
2.600000000000000089e-01 2.327342683802804402e+00
2.800000000000000266e-01 2.324053511986368559e+00
2.999999999999999889e-01 2.320697525195897448e+00
3.200000000000000067e-01 2.317275230121003116e+00
3.400000000000000244e-01 2.313787144040845511e+00
3.599999999999999867e-01 2.310233790158963352e+00
3.800000000000000044e-01 2.306615702005709867e+00
4.000000000000000222e-01 2.302933418595339621e+00
4.199999999999999845e-01 2.299187488996825568e+00
4.400000000000000022e-01 2.295378467317824356e+00
4.600000000000000200e-01 2.291506917441282098e+00
4.799999999999999822e-01 2.287573407838498607e+00
5.000000000000000000e-01 2.283578516469177977e+00
5.200000000000000178e-01 2.279522825427640953e+00
5.400000000000000355e-01 2.275406926003631813e+00
5.600000000000000533e-01 2.271231413164680912e+00
5.799999999999999600e-01 2.266996890775008211e+00
5.999999999999999778e-01 2.262703965917955973e+00
6.199999999999999956e-01 2.258353254270132116e+00
6.400000000000000133e-01 2.253945374267347201e+00
6.600000000000000311e-01 2.249480952631078168e+00
6.800000000000000488e-01 2.244960618381911743e+00
7.000000000000000666e-01 2.240385008515231036e+00
7.199999999999999734e-01 2.235754761865932139e+00
7.399999999999999911e-01 2.231070524930185872e+00
7.600000000000000089e-01 2.226332945585517198e+00
7.800000000000000266e-01 2.221542679055358516e+00
8.000000000000000444e-01 2.216700381488502014e+00
8.200000000000000622e-01 2.211806716063061007e+00
8.399999999999999689e-01 2.206862346429531829e+00
8.599999999999999867e-01 2.201867942950665569e+00
8.800000000000000044e-01 2.196824176012380114e+00
9.000000000000000222e-01 2.191731722395902082e+00
9.200000000000000400e-01 2.186591258460937048e+00
9.400000000000000577e-01 2.181403466646387290e+00
9.599999999999999645e-01 2.176169028530165139e+00
9.799999999999999822e-01 2.170888631454658046e+00
1.000000000000000000e+00 2.165562961467769831e+00
1.020000000000000018e+00 2.160192710069169575e+00
1.040000000000000036e+00 2.154778567037146875e+00
1.060000000000000053e+00 2.149321227291631775e+00
1.080000000000000071e+00 2.143821383611542952e+00
1.100000000000000089e+00 2.138279733610430888e+00
1.120000000000000107e+00 2.132696972349094722e+00
1.140000000000000124e+00 2.127073799419563205e+00
1.159999999999999920e+00 2.121410911457860760e+00
1.179999999999999938e+00 2.115709009331946167e+00
1.199999999999999956e+00 2.109968790559547891e+00
1.219999999999999973e+00 2.104190956595598738e+00
1.239999999999999991e+00 2.098376205160126240e+00
1.260000000000000009e+00 2.092525237620615375e+00
1.280000000000000027e+00 2.086638751235029510e+00
1.300000000000000044e+00 2.080717446624409384e+00
1.320000000000000062e+00 2.074762019936169377e+00
1.340000000000000080e+00 2.068773170402157913e+00
1.360000000000000098e+00 2.062751592427441771e+00
1.380000000000000115e+00 2.056697983228934490e+00
1.400000000000000133e+00 2.050613034854953831e+00
1.419999999999999929e+00 2.044497441899433277e+00
1.439999999999999947e+00 2.038351893457607478e+00
1.459999999999999964e+00 2.032177080910717137e+00
1.479999999999999982e+00 2.025973689823235890e+00
1.500000000000000000e+00 2.019742407792893157e+00
1.520000000000000018e+00 2.013483916294933618e+00
1.540000000000000036e+00 2.007198898592152059e+00
1.560000000000000053e+00 2.000888031531744105e+00
1.580000000000000071e+00 1.994551993509996235e+00
1.600000000000000089e+00 1.988191456227321074e+00
1.620000000000000107e+00 1.981807092702132511e+00
1.640000000000000124e+00 1.975399568989749222e+00
1.660000000000000142e+00 1.968969552239888010e+00
1.679999999999999938e+00 1.962517702385169427e+00
1.699999999999999956e+00 1.956044680236581845e+00
1.719999999999999973e+00 1.949551139147387868e+00
1.739999999999999991e+00 1.943037733140817069e+00
1.760000000000000009e+00 1.936505108555229615e+00
1.780000000000000027e+00 1.929953912198198562e+00
1.800000000000000044e+00 1.923384782978864171e+00
1.820000000000000062e+00 1.916798360082483388e+00
1.840000000000000080e+00 1.910195274595956727e+00
1.860000000000000098e+00 1.903576157696835969e+00
1.880000000000000115e+00 1.896941632278061451e+00
1.900000000000000133e+00 1.890292321145358390e+00
1.919999999999999929e+00 1.883628838647253056e+00
1.939999999999999947e+00 1.876951798874709976e+00
1.959999999999999964e+00 1.870261807302585622e+00
1.979999999999999982e+00 1.863559468985238832e+00
2.000000000000000000e+00 1.856845380215643271e+00
2.020000000000000018e+00 1.850120136710657004e+00
2.040000000000000036e+00 1.843384325294041615e+00
2.060000000000000053e+00 1.836638532065007157e+00
2.080000000000000071e+00 1.829883334111437554e+00
2.100000000000000089e+00 1.823119307655250765e+00
2.120000000000000107e+00 1.816347019802218909e+00
2.140000000000000124e+00 1.809567036657578010e+00
2.160000000000000142e+00 1.802779915118868592e+00
2.180000000000000160e+00 1.795986210955192730e+00
2.200000000000000178e+00 1.789186470649552385e+00
2.220000000000000195e+00 1.782381239435071096e+00
2.240000000000000213e+00 1.775571053193359727e+00
2.260000000000000231e+00 1.768756446440957530e+00
2.280000000000000249e+00 1.761937944290306035e+00
2.300000000000000266e+00 1.755116070379596049e+00
2.319999999999999840e+00 1.748291338902985270e+00
2.339999999999999858e+00 1.741464262476976499e+00
2.359999999999999876e+00 1.734635344246565181e+00
2.379999999999999893e+00 1.727805085681218156e+00
2.399999999999999911e+00 1.720973978763669754e+00
2.419999999999999929e+00 1.714142513708501347e+00
2.439999999999999947e+00 1.707311171240403436e+00
2.459999999999999964e+00 1.700480430228279660e+00
2.479999999999999982e+00 1.693650760059793425e+00
2.500000000000000000e+00 1.686822628183909378e+00
2.520000000000000018e+00 1.679996492588604617e+00
2.540000000000000036e+00 1.673172809244673598e+00
2.560000000000000053e+00 1.666352024693538825e+00
2.580000000000000071e+00 1.659534583385093409e+00
2.600000000000000089e+00 1.652720920382590775e+00
2.620000000000000107e+00 1.645911468587264670e+00
2.640000000000000124e+00 1.639106651567319162e+00
2.660000000000000142e+00 1.632306890661984200e+00
2.680000000000000160e+00 1.625512597941705772e+00
2.700000000000000178e+00 1.618724183184264254e+00
2.720000000000000195e+00 1.611942046973258158e+00
2.740000000000000213e+00 1.605166587538871648e+00
2.760000000000000231e+00 1.598398194001846351e+00
2.780000000000000249e+00 1.591637253071412017e+00
2.800000000000000266e+00 1.584884142441937982e+00
2.819999999999999840e+00 1.578139237340539847e+00
2.839999999999999858e+00 1.571402904083663010e+00
2.859999999999999876e+00 1.564675506466806310e+00
2.879999999999999893e+00 1.557957399488334005e+00
2.899999999999999911e+00 1.551248935573706689e+00
2.919999999999999929e+00 1.544550458473899601e+00
2.939999999999999947e+00 1.537862309316468723e+00
2.959999999999999964e+00 1.531184820685963066e+00
2.979999999999999982e+00 1.524518322494157418e+00
3.000000000000000000e+00 1.517863136249886669e+00
3.020000000000000018e+00 1.511219580740730040e+00
3.040000000000000036e+00 1.504587966499721707e+00
3.060000000000000053e+00 1.497968601290722956e+00
3.080000000000000071e+00 1.491361784779555499e+00
3.100000000000000089e+00 1.484767813815242254e+00
3.120000000000000107e+00 1.478186977313109995e+00
3.140000000000000124e+00 1.471619561324076564e+00
3.160000000000000142e+00 1.465065844137332762e+00
3.180000000000000160e+00 1.458526101129779651e+00
3.200000000000000178e+00 1.452000600095933569e+00
3.220000000000000195e+00 1.445489605869627381e+00
3.240000000000000213e+00 1.438993375888795390e+00
3.260000000000000231e+00 1.432512164581494440e+00
3.280000000000000249e+00 1.426046219173310758e+00
3.300000000000000266e+00 1.419595783829706637e+00
3.320000000000000284e+00 1.413161095713813209e+00
3.339999999999999858e+00 1.406742388877093575e+00
3.359999999999999876e+00 1.400339890575318380e+00
3.379999999999999893e+00 1.393953824899500704e+00
3.399999999999999911e+00 1.387584409357909498e+00
3.419999999999999929e+00 1.381231858239180044e+00
3.439999999999999947e+00 1.374896379468232510e+00
3.459999999999999964e+00 1.368578177693492659e+00
3.479999999999999982e+00 1.362277451424605434e+00
3.500000000000000000e+00 1.355994395835605992e+00
3.520000000000000018e+00 1.349729200192412160e+00
3.540000000000000036e+00 1.343482050363784763e+00
3.560000000000000053e+00 1.337253126546567028e+00
3.580000000000000071e+00 1.331042605476216556e+00
3.600000000000000089e+00 1.324850658457856323e+00
3.620000000000000107e+00 1.318677453268155775e+00
3.640000000000000124e+00 1.312523152500218560e+00
3.660000000000000142e+00 1.306387915148568890e+00
3.680000000000000160e+00 1.300271895275996625e+00
3.700000000000000178e+00 1.294175243273334219e+00
3.720000000000000195e+00 1.288098104856410409e+00
3.740000000000000213e+00 1.282040621992305063e+00
3.760000000000000231e+00 1.276002932234564069e+00
3.780000000000000249e+00 1.269985169307611850e+00
3.800000000000000266e+00 1.263987462788422667e+00
3.820000000000000284e+00 1.258009938340704181e+00
3.839999999999999858e+00 1.252052717751295230e+00
3.859999999999999876e+00 1.246115918805712264e+00
3.879999999999999893e+00 1.240199655687538316e+00
3.899999999999999911e+00 1.234304038486896848e+00
3.919999999999999929e+00 1.228429173971173238e+00
3.939999999999999947e+00 1.222575164717947915e+00
3.959999999999999964e+00 1.216742110265382815e+00
3.979999999999999982e+00 1.210930105861129480e+00
4.000000000000000000e+00 1.205139244000794640e+00
4.020000000000000462e+00 1.199369612784282113e+00
4.040000000000000036e+00 1.193621297850743890e+00
4.060000000000000497e+00 1.187894380333835764e+00
4.080000000000000071e+00 1.182188939201601396e+00
4.099999999999999645e+00 1.176505048802081843e+00
4.120000000000000107e+00 1.170842781616597383e+00
4.139999999999999680e+00 1.165202205387093626e+00
4.160000000000000142e+00 1.159583386291402007e+00
4.179999999999999716e+00 1.153986385643668067e+00
4.200000000000000178e+00 1.148411263500116242e+00
4.219999999999999751e+00 1.142858074923923217e+00
4.240000000000000213e+00 1.137326874030106572e+00
4.259999999999999787e+00 1.131817709806135275e+00
4.280000000000000249e+00 1.126330630604543748e+00
4.299999999999999822e+00 1.120865679510578472e+00
4.320000000000000284e+00 1.115422899291235170e+00
4.339999999999999858e+00 1.110002327301148339e+00
4.360000000000000320e+00 1.104604000896776350e+00
4.379999999999999893e+00 1.099227951871738718e+00
4.400000000000000355e+00 1.093874212344883690e+00
4.419999999999999929e+00 1.088542808716296273e+00
4.440000000000000391e+00 1.083233768037973554e+00
4.459999999999999964e+00 1.077947111481668996e+00
4.480000000000000426e+00 1.072682861201035287e+00
4.500000000000000000e+00 1.067441033302369835e+00
4.520000000000000462e+00 1.062221645207085174e+00
4.540000000000000036e+00 1.057024708116471867e+00
4.560000000000000497e+00 1.051850234883363600e+00
4.580000000000000071e+00 1.046698231961971981e+00
4.600000000000000533e+00 1.041568707797675186e+00
4.620000000000000107e+00 1.036461664252930293e+00
4.639999999999999680e+00 1.031377105524180271e+00
4.660000000000000142e+00 1.026315029034825077e+00
4.679999999999999716e+00 1.021275434888218703e+00
4.700000000000000178e+00 1.016258316218659141e+00
4.719999999999999751e+00 1.011263669189552239e+00
4.740000000000000213e+00 1.006291482793305381e+00
4.759999999999999787e+00 1.001341749403736880e+00
4.780000000000000249e+00 9.964144540157491292e-01
4.799999999999999822e+00 9.915095853611319843e-01
4.820000000000000284e+00 9.866271245788471589e-01
4.839999999999999858e+00 9.817670569033651873e-01
4.860000000000000320e+00 9.769293597563805109e-01
4.879999999999999893e+00 9.721140150168886551e-01
4.900000000000000355e+00 9.673209965250963993e-01
4.919999999999999929e+00 9.625502829434865459e-01
4.940000000000000391e+00 9.578018446636225036e-01
4.959999999999999964e+00 9.530756572675235239e-01
4.980000000000000426e+00 9.483716878280390450e-01
5.000000000000000000e+00 9.436899089798541640e-01
5.020000000000000462e+00 9.390302846040784468e-01
5.040000000000000036e+00 9.343927845182730119e-01
5.060000000000000497e+00 9.297773695358455548e-01
5.080000000000000071e+00 9.251840067845146232e-01
5.100000000000000533e+00 9.206126541310641898e-01
5.120000000000000107e+00 9.160632761377380806e-01
5.139999999999999680e+00 9.115358278428420391e-01
5.160000000000000142e+00 9.070302713645899129e-01
5.179999999999999716e+00 9.025465590280157269e-01
5.200000000000000178e+00 8.980846506258481909e-01
5.219999999999999751e+00 8.936444958821454509e-01
5.240000000000000213e+00 8.892260523798076743e-01
5.259999999999999787e+00 8.848292673512893058e-01
5.280000000000000249e+00 8.804540962824427552e-01
5.299999999999999822e+00 8.761004840206316757e-01
5.320000000000000284e+00 8.717683840645892301e-01
5.339999999999999858e+00 8.674577389802116123e-01
5.360000000000000320e+00 8.631685003862301642e-01
5.379999999999999893e+00 8.589006086678659946e-01
5.400000000000000355e+00 8.546540136681528566e-01
5.419999999999999929e+00 8.504286536896137338e-01
5.440000000000000391e+00 8.462244769011214585e-01
5.459999999999999964e+00 8.420414196177082866e-01
5.480000000000000426e+00 8.378794284328788811e-01
5.500000000000000000e+00 8.337384377666163804e-01
5.520000000000000462e+00 8.296183927331528540e-01
5.540000000000000036e+00 8.255192259471471061e-01
5.560000000000000497e+00 8.214408811369833252e-01
5.580000000000000071e+00 8.173832891990460148e-01
5.600000000000000533e+00 8.133463925666426508e-01
5.620000000000000107e+00 8.093301205022975786e-01
5.639999999999999680e+00 8.053344142324362354e-01
5.660000000000000142e+00 8.013592014675082753e-01
5.679999999999999716e+00 7.974044223126974806e-01
5.700000000000000178e+00 7.934700030056072162e-01
5.719999999999999751e+00 7.895558826132966779e-01
5.740000000000000213e+00 7.856619859772354664e-01
5.759999999999999787e+00 7.817882512070022383e-01
5.780000000000000249e+00 7.779346018221500181e-01
5.799999999999999822e+00 7.741009750529983524e-01
5.820000000000000284e+00 7.702872931689702662e-01
5.839999999999999858e+00 7.664934925969563162e-01
5.860000000000000320e+00 7.627194944256304732e-01
5.879999999999999893e+00 7.589652343519500688e-01
5.900000000000000355e+00 7.552306323508759522e-01
5.919999999999999929e+00 7.515156234606249486e-01
5.940000000000000391e+00 7.478201266071723419e-01
5.959999999999999964e+00 7.441440762389460728e-01
5.980000000000000426e+00 7.404873902953960085e-01
6.000000000000000000e+00 7.368500027019069254e-01
6.020000000000000462e+00 7.332318304716540780e-01
6.040000000000000036e+00 7.296328070715611958e-01
6.060000000000000497e+00 7.260528486466126807e-01
6.080000000000000071e+00 7.224918882677526799e-01
6.100000000000000533e+00 7.189498412677145511e-01
6.120000000000000107e+00 7.154266403818861919e-01
6.140000000000000568e+00 7.119222001846328141e-01
6.160000000000000142e+00 7.084364531341725835e-01
6.179999999999999716e+00 7.049693130983476497e-01
6.200000000000000178e+00 7.015207123146434132e-01
6.219999999999999751e+00 6.980905639942266427e-01
6.240000000000000213e+00 6.946788002083535973e-01
6.259999999999999787e+00 6.912853335594447701e-01
6.280000000000000249e+00 6.879100960051562907e-01
6.299999999999999822e+00 6.845529995851723504e-01
6.320000000000000284e+00 6.812139761943517557e-01
6.339999999999999858e+00 6.778929373538223890e-01
6.360000000000000320e+00 6.745898149446546421e-01
6.379999999999999893e+00 6.713045200117919720e-01
6.400000000000000355e+00 6.680369844697938708e-01
6.419999999999999929e+00 6.647871189280228910e-01
6.440000000000000391e+00 6.615548553801128273e-01
6.459999999999999964e+00 6.583401040387449887e-01
6.480000000000000426e+00 6.551427970205576656e-01
6.500000000000000000e+00 6.519628441787745921e-01
6.520000000000000462e+00 6.488001777953703586e-01
6.540000000000000036e+00 6.456547073997040975e-01
6.560000000000000497e+00 6.425263654798519797e-01
6.580000000000000071e+00 6.394150612753242147e-01
6.600000000000000533e+00 6.363207275195560397e-01
6.620000000000000107e+00 6.332432731946691096e-01
6.640000000000000568e+00 6.301826313172333993e-01
6.660000000000000142e+00 6.271387106429574532e-01
6.679999999999999716e+00 6.241114445078854711e-01
6.700000000000000178e+00 6.211007414708180630e-01
6.719999999999999751e+00 6.181065352222308018e-01
6.740000000000000213e+00 6.151287341521050056e-01
6.759999999999999787e+00 6.121672723389497417e-01
6.780000000000000249e+00 6.092220580306381139e-01
6.799999999999999822e+00 6.062930257260051858e-01
6.820000000000000284e+00 6.033800835561807796e-01
6.839999999999999858e+00 6.004831664713510264e-01
6.860000000000000320e+00 5.976021825099711027e-01
6.879999999999999893e+00 5.947370671033672673e-01
6.900000000000000355e+00 5.918877282201236989e-01
6.919999999999999929e+00 5.890541018013051300e-01
6.940000000000000391e+00 5.862360957672041462e-01
6.959999999999999964e+00 5.834336465960550111e-01
6.980000000000000426e+00 5.806466621802485184e-01
7.000000000000000000e+00 5.778750795615160696e-01
7.020000000000000462e+00 5.751188066235722873e-01
7.040000000000000036e+00 5.723777809968850772e-01
7.060000000000000497e+00 5.696519105746046252e-01
7.080000000000000071e+00 5.669411336001193291e-01
7.100000000000000533e+00 5.642453579930463148e-01
7.120000000000000107e+00 5.615645226328678241e-01
7.140000000000000568e+00 5.588985354816394802e-01
7.160000000000000142e+00 5.562473360771363895e-01
7.179999999999999716e+00 5.536108324388053781e-01
7.200000000000000178e+00 5.509889647839572024e-01
7.219999999999999751e+00 5.483816412034037135e-01
7.240000000000000213e+00 5.457888026143211668e-01
7.259999999999999787e+00 5.432103571918985851e-01
7.280000000000000249e+00 5.406462465726238342e-01
7.299999999999999822e+00 5.380963790281461101e-01
7.320000000000000284e+00 5.355606969328604583e-01
7.339999999999999858e+00 5.330391086660765110e-01
7.360000000000000320e+00 5.305315573578630595e-01
7.379999999999999893e+00 5.280379515055162454e-01
7.400000000000000355e+00 5.255582350117503632e-01
7.419999999999999929e+00 5.230923165013394716e-01
7.440000000000000391e+00 5.206401406658602848e-01
7.459999999999999964e+00 5.182016162662386183e-01
7.480000000000000426e+00 5.157766887983854520e-01
7.500000000000000000e+00 5.133652671672781498e-01
7.520000000000000462e+00 5.109672976879193751e-01
7.540000000000000036e+00 5.085826894164906520e-01
7.560000000000000497e+00 5.062113895011608466e-01
7.580000000000000071e+00 5.038533071557175225e-01
7.600000000000000533e+00 5.015083903749120164e-01
7.620000000000000107e+00 4.991765485358584109e-01
7.640000000000000568e+00 4.968577304926769522e-01
7.660000000000000142e+00 4.945518457908213983e-01
7.679999999999999716e+00 4.922588441559577199e-01
7.700000000000000178e+00 4.899786353062566824e-01
7.719999999999999751e+00 4.877111698505101067e-01
7.740000000000000213e+00 4.854563576833452188e-01
7.759999999999999787e+00 4.832141503077069244e-01
7.780000000000000249e+00 4.809844577978039104e-01
7.799999999999999822e+00 4.787672325612170598e-01
7.820000000000000284e+00 4.765623848542721031e-01
7.839999999999999858e+00 4.743698679991483202e-01
7.860000000000000320e+00 4.721895924362626284e-01
7.879999999999999893e+00 4.700215124118576893e-01
