# Electrodo circular de radio 6 mm y espesor 710.0 um.
# Volumen de simulacion (convencion z,y,x):
# N: 1024 x 1024 x 1024 | voxelSize:  0.02mm x 0.02mm x 0.02mm | FOV:  20.48mm x 20.48mm x 20.48mm
# 
# z [mm]		 delta[ppm]
0.000000000000000000e+00 2.673183240793141735e+00
2.000000000000000042e-02 2.668845817281463528e+00
4.000000000000000083e-02 2.664383168206184926e+00
5.999999999999999778e-02 2.659796616985129702e+00
8.000000000000000167e-02 2.655087516646003287e+00
1.000000000000000056e-01 2.650257243781407368e+00
1.199999999999999956e-01 2.645307204977896731e+00
1.400000000000000133e-01 2.640238834321770423e+00
1.600000000000000033e-01 2.635053590301611681e+00
1.799999999999999933e-01 2.629752958291823983e+00
2.000000000000000111e-01 2.624338444958233652e+00
2.200000000000000011e-01 2.618811582270809346e+00
2.399999999999999911e-01 2.613173921095263363e+00
2.600000000000000089e-01 2.607427035862726505e+00
2.800000000000000266e-01 2.601572517570339471e+00
2.999999999999999889e-01 2.595611978945828291e+00
3.200000000000000067e-01 2.589547047009345349e+00
3.400000000000000244e-01 2.583379368646379515e+00
3.599999999999999867e-01 2.577110602780524840e+00
3.800000000000000044e-01 2.570742426316462215e+00
4.000000000000000222e-01 2.564276525972325249e+00
4.199999999999999845e-01 2.557714604566344807e+00
4.400000000000000022e-01 2.551058372531771479e+00
4.600000000000000200e-01 2.544309554532402817e+00
4.799999999999999822e-01 2.537469880683758561e+00
5.000000000000000000e-01 2.530541093486303517e+00
5.200000000000000178e-01 2.523524938767335968e+00
5.400000000000000355e-01 2.516423172924514784e+00
5.600000000000000533e-01 2.509237553603448134e+00
5.799999999999999600e-01 2.501969847245327561e+00
5.999999999999999778e-01 2.494621819511145588e+00
6.199999999999999956e-01 2.487195243128635713e+00
6.400000000000000133e-01 2.479691888074253114e+00
6.600000000000000311e-01 2.472113529714942359e+00
6.800000000000000488e-01 2.464461938757028570e+00
7.000000000000000666e-01 2.456738889678742321e+00
7.199999999999999734e-01 2.448946150455206361e+00
7.399999999999999911e-01 2.441085491277632968e+00
7.600000000000000089e-01 2.433158674062443794e+00
7.800000000000000266e-01 2.425167461453085593e+00
8.000000000000000444e-01 2.417113606121283897e+00
8.200000000000000622e-01 2.408998860047225410e+00
8.399999999999999689e-01 2.400824963620214358e+00
8.599999999999999867e-01 2.392593655192832180e+00
8.800000000000000044e-01 2.384306659988206345e+00
9.000000000000000222e-01 2.375965699923438201e+00
9.200000000000000400e-01 2.367572482330212669e+00
9.400000000000000577e-01 2.359128710042610599e+00
9.599999999999999645e-01 2.350636069937633632e+00
9.799999999999999822e-01 2.342096243282201229e+00
1.000000000000000000e+00 2.333510894099879440e+00
1.020000000000000018e+00 2.324881679771577669e+00
1.040000000000000036e+00 2.316210239234628876e+00
1.060000000000000053e+00 2.307498203831440442e+00
1.080000000000000071e+00 2.298747185346831756e+00
1.100000000000000089e+00 2.289958787098592463e+00
1.120000000000000107e+00 2.281134591818909652e+00
1.140000000000000124e+00 2.272276172980504771e+00
1.159999999999999920e+00 2.263385082527789471e+00
1.179999999999999938e+00 2.254462862432021097e+00
1.199999999999999956e+00 2.245511032277737407e+00
1.219999999999999973e+00 2.236531101040096114e+00
1.239999999999999991e+00 2.227524554532037904e+00
1.260000000000000009e+00 2.218492867396747670e+00
1.280000000000000027e+00 2.209437490420919747e+00
1.300000000000000044e+00 2.200359862735049798e+00
1.320000000000000062e+00 2.191261398998129550e+00
1.340000000000000080e+00 2.182143501798254004e+00
1.360000000000000098e+00 2.173007548714028125e+00
1.380000000000000115e+00 2.163854904907803522e+00
1.400000000000000133e+00 2.154686910069029349e+00
1.419999999999999929e+00 2.145504891192257624e+00
1.439999999999999947e+00 2.136310149407675940e+00
1.459999999999999964e+00 2.127103972935846521e+00
1.479999999999999982e+00 2.117887623810652542e+00
1.500000000000000000e+00 2.108662351002596580e+00
1.520000000000000018e+00 2.099429377039429223e+00
1.540000000000000036e+00 2.090189911289672686e+00
1.560000000000000053e+00 2.080945136486211489e+00
1.580000000000000071e+00 2.071696222161636847e+00
1.600000000000000089e+00 2.062444311080117831e+00
1.620000000000000107e+00 2.053190532816012048e+00
1.640000000000000124e+00 2.043935990099404076e+00
1.660000000000000142e+00 2.034681772529375099e+00
1.679999999999999938e+00 2.025428942838616297e+00
1.699999999999999956e+00 2.016178550732669272e+00
1.719999999999999973e+00 2.006931619079122431e+00
1.739999999999999991e+00 1.997689157864052545e+00
1.760000000000000009e+00 1.988452150311388111e+00
1.780000000000000027e+00 1.979221566947713118e+00
1.800000000000000044e+00 1.969998351657480828e+00
1.820000000000000062e+00 1.960783435847313294e+00
1.840000000000000080e+00 1.951577724442815187e+00
1.860000000000000098e+00 1.942382110143465068e+00
1.880000000000000115e+00 1.933197459366877480e+00
1.900000000000000133e+00 1.924024626585377318e+00
1.919999999999999929e+00 1.914864440223632336e+00
1.939999999999999947e+00 1.905717717067966888e+00
1.959999999999999964e+00 1.896585248123445977e+00
1.979999999999999982e+00 1.887467813086936896e+00
2.000000000000000000e+00 1.878366166169802787e+00
2.020000000000000018e+00 1.869281050625766882e+00
2.040000000000000036e+00 1.860213184545463694e+00
2.060000000000000053e+00 1.851163275430154798e+00
2.080000000000000071e+00 1.842132005964486563e+00
2.100000000000000089e+00 1.833120048627094212e+00
2.120000000000000107e+00 1.824128051448082655e+00
2.140000000000000124e+00 1.815156652647542224e+00
2.160000000000000142e+00 1.806206466384328913e+00
2.180000000000000160e+00 1.797278097413556264e+00
2.200000000000000178e+00 1.788372126833386311e+00
2.220000000000000195e+00 1.779489126752564765e+00
2.240000000000000213e+00 1.770629646042011007e+00
2.260000000000000231e+00 1.761794225003505021e+00
2.280000000000000249e+00 1.752983381132974694e+00
2.300000000000000266e+00 1.744197623781436945e+00
2.319999999999999840e+00 1.735437439937010273e+00
2.339999999999999858e+00 1.726703308869221853e+00
2.359999999999999876e+00 1.717995687936869853e+00
2.379999999999999893e+00 1.709315027206848692e+00
2.399999999999999911e+00 1.700661755295056699e+00
2.419999999999999929e+00 1.692036293950914150e+00
2.439999999999999947e+00 1.683439043938633306e+00
2.459999999999999964e+00 1.674870399578625380e+00
2.479999999999999982e+00 1.666330734676514158e+00
2.500000000000000000e+00 1.657820417012657588e+00
2.520000000000000018e+00 1.649339794326391884e+00
2.540000000000000036e+00 1.640889208744914507e+00
2.560000000000000053e+00 1.632468982830326043e+00
2.580000000000000071e+00 1.624079433939123573e+00
2.600000000000000089e+00 1.615720860339699749e+00
2.620000000000000107e+00 1.607393555493753956e+00
2.640000000000000124e+00 1.599097794251954863e+00
2.660000000000000142e+00 1.590833847048571226e+00
2.680000000000000160e+00 1.582601966183118991e+00
2.700000000000000178e+00 1.574402399919547557e+00
2.720000000000000195e+00 1.566235378861717153e+00
2.740000000000000213e+00 1.558101129948494146e+00
2.760000000000000231e+00 1.549999862931019434e+00
2.780000000000000249e+00 1.541931784255081261e+00
2.800000000000000266e+00 1.533897083648144255e+00
2.819999999999999840e+00 1.525895947880411940e+00
2.839999999999999858e+00 1.517928547469669320e+00
2.859999999999999876e+00 1.509995050312459064e+00
2.879999999999999893e+00 1.502095608514826042e+00
2.899999999999999911e+00 1.494230371885028941e+00
2.919999999999999929e+00 1.486399474898379758e+00
2.939999999999999947e+00 1.478603050042916589e+00
2.959999999999999964e+00 1.470841214926532414e+00
2.979999999999999982e+00 1.463114085467086989e+00
3.000000000000000000e+00 1.455421763150069436e+00
3.020000000000000018e+00 1.447764348054643380e+00
3.040000000000000036e+00 1.440141926270105177e+00
3.060000000000000053e+00 1.432554582749352434e+00
3.080000000000000071e+00 1.425002388892489424e+00
3.100000000000000089e+00 1.417485415219221112e+00
3.120000000000000107e+00 1.410003719127936650e+00
3.140000000000000124e+00 1.402557357378562575e+00
3.160000000000000142e+00 1.395146374035529213e+00
3.180000000000000160e+00 1.387770812752602279e+00
3.200000000000000178e+00 1.380430704908128359e+00
3.220000000000000195e+00 1.373126081683420541e+00
3.240000000000000213e+00 1.365856962398702024e+00
3.260000000000000231e+00 1.358623366376601860e+00
3.280000000000000249e+00 1.351425301487267250e+00
3.300000000000000266e+00 1.344262775788526376e+00
3.320000000000000284e+00 1.337135786288646599e+00
3.339999999999999858e+00 1.330044330354754223e+00
3.359999999999999876e+00 1.322988394701718695e+00
3.379999999999999893e+00 1.315967966560411151e+00
3.399999999999999911e+00 1.308983022901251569e+00
3.419999999999999929e+00 1.302033541353882606e+00
3.439999999999999947e+00 1.295119489673877577e+00
3.459999999999999964e+00 1.288240836405483591e+00
3.479999999999999982e+00 1.281397540599994667e+00
3.500000000000000000e+00 1.274589562213159333e+00
3.520000000000000018e+00 1.267816852083782919e+00
3.540000000000000036e+00 1.261079362057429210e+00
3.560000000000000053e+00 1.254377035233778415e+00
3.580000000000000071e+00 1.247709815808232259e+00
3.600000000000000089e+00 1.241077639596612547e+00
3.620000000000000107e+00 1.234480443586309706e+00
3.640000000000000124e+00 1.227918156746837353e+00
3.660000000000000142e+00 1.221390709282192732e+00
3.680000000000000160e+00 1.214898023735828669e+00
3.700000000000000178e+00 1.208440023935848595e+00
3.720000000000000195e+00 1.202016626402972355e+00
3.740000000000000213e+00 1.195627748980224725e+00
3.760000000000000231e+00 1.189273302552429357e+00
3.780000000000000249e+00 1.182953199352076545e+00
3.800000000000000266e+00 1.176667344998884479e+00
3.820000000000000284e+00 1.170415646473501603e+00
3.839999999999999858e+00 1.164198004485721638e+00
3.859999999999999876e+00 1.158014321107674105e+00
3.879999999999999893e+00 1.151864492479232061e+00
3.899999999999999911e+00 1.145748416092370547e+00
3.919999999999999929e+00 1.139665983842327979e+00
3.939999999999999947e+00 1.133617088954813168e+00
3.959999999999999964e+00 1.127601619391444210e+00
3.979999999999999982e+00 1.121619464411487410e+00
4.000000000000000000e+00 1.115670508340148359e+00
4.020000000000000462e+00 1.109754636756502100e+00
4.040000000000000036e+00 1.103871730633153359e+00
4.060000000000000497e+00 1.098021672142078797e+00
4.080000000000000071e+00 1.092204339174184913e+00
4.099999999999999645e+00 1.086419610754755238e+00
4.120000000000000107e+00 1.080667361951409999e+00
4.139999999999999680e+00 1.074947468890849578e+00
4.160000000000000142e+00 1.069259804063777297e+00
4.179999999999999716e+00 1.063604240934622469e+00
4.200000000000000178e+00 1.057980649651906857e+00
4.219999999999999751e+00 1.052388901242667485e+00
4.240000000000000213e+00 1.046828863736801063e+00
4.259999999999999787e+00 1.041300405937864326e+00
4.280000000000000249e+00 1.035803393969883635e+00
4.299999999999999822e+00 1.030337694616253241e+00
4.320000000000000284e+00 1.024903172297525700e+00
4.339999999999999858e+00 1.019499691970078059e+00
4.360000000000000320e+00 1.014127116543404705e+00
4.379999999999999893e+00 1.008785309330234359e+00
4.400000000000000355e+00 1.003474131911813005e+00
4.419999999999999929e+00 9.981934461312089724e-01
4.440000000000000391e+00 9.929431124150202015e-01
4.459999999999999964e+00 9.877229913015854734e-01
4.480000000000000426e+00 9.825329422276450897e-01
4.500000000000000000e+00 9.773728245830873851e-01
4.520000000000000462e+00 9.722424969710686815e-01
4.540000000000000036e+00 9.671418177810162664e-01
4.560000000000000497e+00 9.620706449306571928e-01
4.580000000000000071e+00 9.570288359489732555e-01
4.600000000000000533e+00 9.520162482086212963e-01
4.620000000000000107e+00 9.470327385105117290e-01
4.639999999999999680e+00 9.420781638151303206e-01
4.660000000000000142e+00 9.371523803204058201e-01
4.679999999999999716e+00 9.322552447003942255e-01
4.700000000000000178e+00 9.273866126681182820e-01
4.719999999999999751e+00 9.225463407301218721e-01
4.740000000000000213e+00 9.177342842259178513e-01
4.759999999999999787e+00 9.129502996069028820e-01
4.780000000000000249e+00 9.081942419440676151e-01
4.799999999999999822e+00 9.034659677397751665e-01
4.820000000000000284e+00 8.987653318953814363e-01
4.839999999999999858e+00 8.940921910643526704e-01
4.860000000000000320e+00 8.894464000714402685e-01
4.879999999999999893e+00 8.848278158156424045e-01
4.900000000000000355e+00 8.802362931325631301e-01
4.919999999999999929e+00 8.756716892557169230e-01
4.940000000000000391e+00 8.711338591136769116e-01
4.959999999999999964e+00 8.666226603582560806e-01
4.980000000000000426e+00 8.621379480880398960e-01
5.000000000000000000e+00 8.576795804519599109e-01
5.020000000000000462e+00 8.532474127907971884e-01
5.040000000000000036e+00 8.488413038246963582e-01
5.060000000000000497e+00 8.444611092041997003e-01
5.080000000000000071e+00 8.401066882902443744e-01
5.100000000000000533e+00 8.357778971062868045e-01
5.120000000000000107e+00 8.314745957193458992e-01
5.139999999999999680e+00 8.271966405847445136e-01
5.160000000000000142e+00 8.229438925367806856e-01
5.179999999999999716e+00 8.187162085175924142e-01
5.200000000000000178e+00 8.145134501860593623e-01
5.219999999999999751e+00 8.103354750222825365e-01
5.240000000000000213e+00 8.061821455633212397e-01
5.259999999999999787e+00 8.020533198747468173e-01
5.280000000000000249e+00 7.979488614218650522e-01
5.299999999999999822e+00 7.938686288997996998e-01
5.320000000000000284e+00 7.898124867488170997e-01
5.339999999999999858e+00 7.857802943343725754e-01
5.360000000000000320e+00 7.817719171152324176e-01
5.379999999999999893e+00 7.777872151648500543e-01
5.400000000000000355e+00 7.738260550009955496e-01
5.419999999999999929e+00 7.698882974398213452e-01
5.440000000000000391e+00 7.659738100957300677e-01
5.459999999999999964e+00 7.620824545594667709e-01
5.480000000000000426e+00 7.582140995769648395e-01
5.500000000000000000e+00 7.543686075427706861e-01
5.520000000000000462e+00 7.505458483666602731e-01
5.540000000000000036e+00 7.467456852736522599e-01
5.560000000000000497e+00 7.429679893672229696e-01
5.580000000000000071e+00 7.392126247271264550e-01
5.600000000000000533e+00 7.354794636780532802e-01
5.620000000000000107e+00 7.317683711764776389e-01
5.639999999999999680e+00 7.280792207936226390e-01
5.660000000000000142e+00 7.244118783824865515e-01
5.679999999999999716e+00 7.207662187840523371e-01
5.700000000000000178e+00 7.171421087655901472e-01
5.719999999999999751e+00 7.135394244590891333e-01
5.740000000000000213e+00 7.099580335619027904e-01
5.759999999999999787e+00 7.063978135163923033e-01
5.780000000000000249e+00 7.028586329639500141e-01
5.799999999999999822e+00 6.993403706749088400e-01
5.820000000000000284e+00 6.958428962469193069e-01
5.839999999999999858e+00 6.923660897942029990e-01
5.860000000000000320e+00 6.889098218812221841e-01
5.879999999999999893e+00 6.854739739804287524e-01
5.900000000000000355e+00 6.820584176320927394e-01
5.919999999999999929e+00 6.786630356797328512e-01
5.940000000000000391e+00 6.752877006469408805e-01
5.959999999999999964e+00 6.719322967597354257e-01
5.980000000000000426e+00 6.685966975311411487e-01
6.000000000000000000e+00 6.652807885797739074e-01
6.020000000000000462e+00 6.619844444128846206e-01
6.040000000000000036e+00 6.587075520505215609e-01
6.060000000000000497e+00 6.554499869977116200e-01
6.080000000000000071e+00 6.522116376835964680e-01
6.100000000000000533e+00 6.489923806133282014e-01
6.120000000000000107e+00 6.457921056316918706e-01
6.140000000000000568e+00 6.426106902452252134e-01
6.160000000000000142e+00 6.394480257198411621e-01
6.179999999999999716e+00 6.363039905636624916e-01
6.200000000000000178e+00 6.331784774682471806e-01
6.219999999999999751e+00 6.300713659425072333e-01
6.240000000000000213e+00 6.269825501072288088e-01
6.259999999999999787e+00 6.239119104703995111e-01
6.280000000000000249e+00 6.208593425847473979e-01
6.299999999999999822e+00 6.178247279547278703e-01
6.320000000000000284e+00 6.148079635669130294e-01
6.339999999999999858e+00 6.118089319188033670e-01
6.360000000000000320e+00 6.088275314319481213e-01
6.379999999999999893e+00 6.058636455926906805e-01
6.400000000000000355e+00 6.029171742579818583e-01
6.419999999999999929e+00 5.999880018980635610e-01
6.440000000000000391e+00 5.970760298050464820e-01
6.459999999999999964e+00 5.941811434274538728e-01
6.480000000000000426e+00 5.913032454916834491e-01
6.500000000000000000e+00 5.884422224182693784e-01
6.520000000000000462e+00 5.855979783664495564e-01
6.540000000000000036e+00 5.827704007218933446e-01
6.560000000000000497e+00 5.799593950746857463e-01
6.580000000000000071e+00 5.771648497681902690e-01
6.600000000000000533e+00 5.743866718208501254e-01
6.620000000000000107e+00 5.716247505257452399e-01
6.640000000000000568e+00 5.688789943267161808e-01
6.660000000000000142e+00 5.661492934580905079e-01
6.679999999999999716e+00 5.634355577857081965e-01
6.700000000000000178e+00 5.607376784762054811e-01
6.719999999999999751e+00 5.580555668136333303e-01
6.740000000000000213e+00 5.553891148875613748e-01
6.759999999999999787e+00 5.527382353960893502e-01
6.780000000000000249e+00 5.501028213419427715e-01
6.799999999999999822e+00 5.474827868327676317e-01
6.820000000000000284e+00 5.448780257742813493e-01
6.839999999999999858e+00 5.422884536788669108e-01
6.860000000000000320e+00 5.397139653447223795e-01
6.879999999999999893e+00 5.371544776838678148e-01
6.900000000000000355e+00 5.346098863761392650e-01
6.919999999999999929e+00 5.320801097278401448e-01
6.940000000000000391e+00 5.295650442892979592e-01
6.959999999999999964e+00 5.270646097554988474e-01
6.980000000000000426e+00 5.245787035358319139e-01
7.000000000000000000e+00 5.221072467081645518e-01
7.020000000000000462e+00 5.196501375292499336e-01
7.040000000000000036e+00 5.172072984538405027e-01
7.060000000000000497e+00 5.147786285741114964e-01
7.080000000000000071e+00 5.123640517155297891e-01
7.100000000000000533e+00 5.099634677935312999e-01
7.120000000000000107e+00 5.075768019979779444e-01
7.140000000000000568e+00 5.052039550551888913e-01
7.160000000000000142e+00 5.028448535129711461e-01
7.179999999999999716e+00 5.004993988959609563e-01
7.200000000000000178e+00 4.981675191033380079e-01
7.219999999999999751e+00 4.958491164453179278e-01
7.240000000000000213e+00 4.935441201657839172e-01
7.259999999999999787e+00 4.912524333476263605e-01
7.280000000000000249e+00 4.889739865726794865e-01
7.299999999999999822e+00 4.867086836834523256e-01
7.320000000000000284e+00 4.844564565929086464e-01
7.339999999999999858e+00 4.822172098899961679e-01
7.360000000000000320e+00 4.799908768119305891e-01
7.379999999999999893e+00 4.777773626807843010e-01
7.400000000000000355e+00 4.755766020511025816e-01
7.419999999999999929e+00 4.733885009646647268e-01
7.440000000000000391e+00 4.712129952864034799e-01
7.459999999999999964e+00 4.690499917642729222e-01
7.480000000000000426e+00 4.668994275666280558e-01
7.500000000000000000e+00 4.647612101339874124e-01
7.520000000000000462e+00 4.626352779311551644e-01
7.540000000000000036e+00 4.605215390775231898e-01
7.560000000000000497e+00 4.584199333273773491e-01
7.580000000000000071e+00 4.563303694652061648e-01
7.600000000000000533e+00 4.542527885278247468e-01
7.620000000000000107e+00 4.521870999509939315e-01
7.640000000000000568e+00 4.501332460471330621e-01
7.660000000000000142e+00 4.480911368893736313e-01
7.679999999999999716e+00 4.460607160588491160e-01
7.700000000000000178e+00 4.440418942521245915e-01
7.719999999999999751e+00 4.420346163121877670e-01
7.740000000000000213e+00 4.400387935450571497e-01
7.759999999999999787e+00 4.380543720487787285e-01
7.780000000000000249e+00 4.360812637247966084e-01
7.799999999999999822e+00 4.341194159194717295e-01
7.820000000000000284e+00 4.321687411156207581e-01
7.839999999999999858e+00 4.302291879012399844e-01
7.860000000000000320e+00 4.283006693264422848e-01
7.879999999999999893e+00 4.263831352142503084e-01
