# Electrodo circular de radio 6 mm y espesor 710.0 um.
# Volumen de simulacion (convencion z,y,x):
# N: 1024 x 1024 x 1024 | voxelSize:  0.02mm x 0.02mm x 0.02mm | FOV:  20.48mm x 20.48mm x 20.48mm
# 
# z [mm]		 delta[ppm]
0.000000000000000000e+00 6.276209022652223801e+00
2.000000000000000042e-02 4.690286051426959979e+00
4.000000000000000083e-02 3.754632755549131673e+00
5.999999999999999778e-02 3.167232969659530273e+00
8.000000000000000167e-02 2.781200701784023899e+00
1.000000000000000056e-01 2.506518240497856986e+00
1.199999999999999956e-01 2.304849347469061005e+00
1.400000000000000133e-01 2.148121813948852932e+00
1.600000000000000033e-01 2.024439637136531633e+00
1.799999999999999933e-01 1.922636298681521971e+00
2.000000000000000111e-01 1.838349091112302602e+00
2.200000000000000011e-01 1.766213449154607318e+00
2.399999999999999911e-01 1.704452764724185165e+00
2.600000000000000089e-01 1.650109619066895128e+00
2.800000000000000266e-01 1.602427720860202243e+00
2.999999999999999889e-01 1.559602779336740852e+00
3.200000000000000067e-01 1.521322277463696748e+00
3.400000000000000244e-01 1.486398165487910150e+00
3.599999999999999867e-01 1.454723796470764663e+00
3.800000000000000044e-01 1.425469794073438434e+00
4.000000000000000222e-01 1.398628482653465843e+00
4.199999999999999845e-01 1.373593689364156933e+00
4.400000000000000022e-01 1.350405544473914921e+00
4.600000000000000200e-01 1.328604650234169737e+00
4.799999999999999822e-01 1.308253318529842835e+00
5.000000000000000000e-01 1.288992921225768473e+00
5.200000000000000178e-01 1.270894736285733240e+00
5.400000000000000355e-01 1.253672054333940356e+00
5.600000000000000533e-01 1.237398213742115560e+00
5.799999999999999600e-01 1.221839290299865155e+00
5.999999999999999778e-01 1.207067099201254656e+00
6.199999999999999956e-01 1.192887641858181969e+00
6.400000000000000133e-01 1.179369419897577043e+00
6.600000000000000311e-01 1.166349146037209072e+00
6.800000000000000488e-01 1.153891200609989287e+00
7.000000000000000666e-01 1.141856554594691930e+00
7.199999999999999734e-01 1.130305199960802032e+00
7.399999999999999911e-01 1.119117404795042070e+00
7.600000000000000089e-01 1.108348799979384403e+00
7.800000000000000266e-01 1.097895423157228878e+00
8.000000000000000444e-01 1.087808726387464064e+00
8.200000000000000622e-01 1.077997597084436876e+00
8.399999999999999689e-01 1.068509566244504105e+00
8.599999999999999867e-01 1.059264321566677269e+00
8.800000000000000044e-01 1.050305760903487595e+00
9.000000000000000222e-01 1.041562521351146131e+00
9.200000000000000400e-01 1.033075160129187653e+00
9.400000000000000577e-01 1.024780023627808179e+00
9.599999999999999645e-01 1.016714611529242696e+00
9.799999999999999822e-01 1.008821727894159803e+00
1.000000000000000000e+00 1.001136081328235949e+00
1.020000000000000018e+00 9.936061668552467196e-01
1.040000000000000036e+00 9.862641485874069636e-01
1.060000000000000053e+00 9.790633155194820025e-01
1.080000000000000071e+00 9.720335130377399935e-01
1.100000000000000089e+00 9.651323500341087991e-01
1.120000000000000107e+00 9.583875584857477481e-01
1.140000000000000124e+00 9.517603892179624658e-01
1.159999999999999920e+00 9.452766467311478626e-01
1.179999999999999938e+00 9.389009394395507746e-01
1.199999999999999956e+00 9.326573123221033601e-01
1.219999999999999973e+00 9.265131932787586955e-01
1.239999999999999991e+00 9.204910192806184943e-01
1.260000000000000009e+00 9.145608816772583527e-01
1.280000000000000027e+00 9.087437460435574543e-01
1.300000000000000044e+00 9.030119206442860369e-01
1.320000000000000062e+00 8.973850228426876185e-01
1.340000000000000080e+00 8.918375119303123544e-01
1.360000000000000098e+00 8.863877681911556117e-01
1.380000000000000115e+00 8.810120163936785431e-01
1.400000000000000133e+00 8.757275000820791133e-01
1.419999999999999929e+00 8.705122092251190713e-01
1.439999999999999947e+00 8.653823413138981291e-01
1.459999999999999964e+00 8.603173069426346409e-01
1.479999999999999982e+00 8.553323396077275875e-01
1.500000000000000000e+00 8.504083196159100133e-01
1.520000000000000018e+00 8.455595908147188755e-01
1.540000000000000036e+00 8.407681861547342539e-01
1.560000000000000053e+00 8.360476272837091827e-01
1.580000000000000071e+00 8.313811872085467014e-01
1.600000000000000089e+00 8.267816266547616255e-01
1.620000000000000107e+00 8.222331598256652496e-01
1.640000000000000124e+00 8.177478422744524078e-01
1.660000000000000142e+00 8.133109474716648801e-01
1.679999999999999938e+00 8.089338765918996366e-01
1.699999999999999956e+00 8.046026751574666402e-01
1.719999999999999973e+00 8.003281363089470579e-01
1.739999999999999991e+00 7.960972209204447703e-01
1.760000000000000009e+00 7.919201564440622176e-01
1.780000000000000027e+00 7.877845388043621666e-01
1.800000000000000044e+00 7.837000685112247567e-01
1.820000000000000062e+00 7.796551411597774095e-01
1.840000000000000080e+00 7.756589658200425674e-01
1.860000000000000098e+00 7.717004608971765878e-01
1.880000000000000115e+00 7.677883765960107354e-01
1.900000000000000133e+00 7.639123372165864678e-01
1.919999999999999929e+00 7.600806640272123049e-01
1.939999999999999947e+00 7.562834112077453375e-01
1.959999999999999964e+00 7.525284986238650609e-01
1.979999999999999982e+00 7.488066097737376969e-01
2.000000000000000000e+00 7.451252884838542867e-01
2.020000000000000018e+00 7.414755704295381555e-01
2.040000000000000036e+00 7.378646467916838425e-01
2.060000000000000053e+00 7.342841196384143343e-01
2.080000000000000071e+00 7.307408491083628999e-01
2.100000000000000089e+00 7.272267238735619088e-01
2.120000000000000107e+00 7.237482930044892848e-01
2.140000000000000124e+00 7.202979595833929327e-01
2.160000000000000142e+00 7.168819801020180904e-01
2.180000000000000160e+00 7.134929884235671205e-01
2.200000000000000178e+00 7.101369655957635585e-01
2.220000000000000195e+00 7.068070167618849542e-01
2.240000000000000213e+00 7.035088634226244197e-01
2.260000000000000231e+00 7.002357935825697099e-01
2.280000000000000249e+00 6.969932839601099550e-01
2.300000000000000266e+00 6.937750579317559785e-01
2.319999999999999840e+00 6.905863611612556019e-01
2.339999999999999858e+00 6.874210584218575226e-01
2.359999999999999876e+00 6.842841770993214334e-01
2.379999999999999893e+00 6.811699873688463747e-01
2.399999999999999911e+00 6.780833102417002101e-01
2.419999999999999929e+00 6.750185211341935831e-01
2.439999999999999947e+00 6.719802457840188259e-01
2.459999999999999964e+00 6.689632399579691358e-01
2.479999999999999982e+00 6.659719444825209500e-01
2.500000000000000000e+00 6.630011886041051739e-01
2.520000000000000018e+00 6.600552379199531305e-01
2.540000000000000036e+00 6.571292810775324345e-01
2.560000000000000053e+00 6.542274174993172320e-01
2.580000000000000071e+00 6.513448812091173767e-01
2.600000000000000089e+00 6.484856139298311728e-01
2.620000000000000107e+00 6.456451915802292607e-01
2.640000000000000124e+00 6.428274061234467984e-01
2.660000000000000142e+00 6.400278538129581252e-01
2.680000000000000160e+00 6.372501842966747931e-01
2.700000000000000178e+00 6.344903211252799213e-01
2.720000000000000195e+00 6.317517786173602046e-01
2.740000000000000213e+00 6.290304781914868304e-01
2.760000000000000231e+00 6.263298053977045532e-01
2.780000000000000249e+00 6.236459968249716823e-01
2.800000000000000266e+00 6.209823154211621121e-01
2.819999999999999840e+00 6.183349753512107361e-01
2.839999999999999858e+00 6.157071227609223207e-01
2.859999999999999876e+00 6.130952769699669069e-01
2.879999999999999893e+00 6.105024727817357499e-01
2.899999999999999911e+00 6.079251886443330921e-01
2.919999999999999929e+00 6.053663531616937377e-01
2.939999999999999947e+00 6.028227417346629924e-01
2.959999999999999964e+00 6.002971816157750551e-01
2.979999999999999982e+00 5.977863904563509578e-01
3.000000000000000000e+00 5.952930987307846200e-01
3.020000000000000018e+00 5.928143144074734527e-01
3.040000000000000036e+00 5.903526754996407666e-01
3.060000000000000053e+00 5.879051166880919777e-01
3.080000000000000071e+00 5.854741876026304803e-01
3.100000000000000089e+00 5.830571079651796218e-01
3.120000000000000107e+00 5.806563428763987789e-01
3.140000000000000124e+00 5.782690243794387230e-01
3.160000000000000142e+00 5.758975366911831539e-01
3.180000000000000160e+00 5.735392928063062223e-01
3.200000000000000178e+00 5.711965995078358560e-01
3.220000000000000195e+00 5.688667687043853505e-01
3.240000000000000213e+00 5.665520330120591419e-01
3.260000000000000231e+00 5.642499822416804367e-01
3.280000000000000249e+00 5.619627779379201549e-01
3.300000000000000266e+00 5.596878962638119903e-01
3.320000000000000284e+00 5.574274306273304669e-01
3.339999999999999858e+00 5.551791329611421855e-01
3.359999999999999876e+00 5.529450313204483658e-01
3.379999999999999893e+00 5.507227521560393857e-01
3.399999999999999911e+00 5.485142608126654107e-01
3.419999999999999929e+00 5.463174581900237525e-01
3.439999999999999947e+00 5.441342494316991907e-01
3.459999999999999964e+00 5.419623987480821636e-01
3.479999999999999982e+00 5.398037534658066683e-01
3.500000000000000000e+00 5.376563516459977876e-01
3.520000000000000018e+00 5.355219850649046709e-01
3.540000000000000036e+00 5.333985444267018705e-01
3.560000000000000053e+00 5.312877681130753205e-01
3.580000000000000071e+00 5.291878207270120926e-01
3.600000000000000089e+00 5.271003893071424251e-01
3.620000000000000107e+00 5.250234808966089961e-01
3.640000000000000124e+00 5.229587331441836184e-01
3.660000000000000142e+00 5.209044276208345536e-01
3.680000000000000160e+00 5.188621544459767199e-01
3.700000000000000178e+00 5.168300278274934323e-01
3.720000000000000195e+00 5.148095921284682186e-01
3.740000000000000213e+00 5.127992372384529984e-01
3.760000000000000231e+00 5.108004634546493561e-01
3.780000000000000249e+00 5.088114838432427067e-01
3.800000000000000266e+00 5.068337562479955372e-01
3.820000000000000284e+00 5.048657710471908810e-01
3.839999999999999858e+00 5.029089451698717239e-01
3.859999999999999876e+00 5.009615830040292650e-01
3.879999999999999893e+00 4.990250620329849118e-01
3.899999999999999911e+00 4.970979660222793473e-01
3.919999999999999929e+00 4.951816344125538061e-01
3.939999999999999947e+00 4.932744560619200525e-01
3.959999999999999964e+00 4.913777337089432207e-01
3.979999999999999982e+00 4.894901380538643210e-01
4.000000000000000000e+00 4.876129364146403189e-01
4.020000000000000462e+00 4.857445958783140894e-01
4.040000000000000036e+00 4.838863495676564153e-01
4.060000000000000497e+00 4.820369492445794601e-01
4.080000000000000071e+00 4.801975950089760747e-01
4.099999999999999645e+00 4.783668264811308801e-01
4.120000000000000107e+00 4.765458118599758541e-01
4.139999999999999680e+00 4.747333786147638346e-01
4.160000000000000142e+00 4.729306641175721748e-01
4.179999999999999716e+00 4.711362753146624560e-01
4.200000000000000178e+00 4.693513197799593084e-01
4.219999999999999751e+00 4.675746958010236209e-01
4.240000000000000213e+00 4.658074821392201859e-01
4.259999999999999787e+00 4.640483482977934560e-01
4.280000000000000249e+00 4.622983451701725977e-01
4.299999999999999822e+00 4.605564373914417531e-01
4.320000000000000284e+00 4.588236488927622259e-01
4.339999999999999858e+00 4.570987073593578143e-01
4.360000000000000320e+00 4.553826106287502951e-01
4.379999999999999893e+00 4.536743855895110089e-01
4.400000000000000355e+00 4.519750048189017377e-01
4.419999999999999929e+00 4.502832501640188223e-01
4.440000000000000391e+00 4.486000697416955285e-01
4.459999999999999964e+00 4.469245489399616411e-01
4.480000000000000426e+00 4.452576121831131051e-01
4.500000000000000000e+00 4.435980917802163637e-01
4.520000000000000462e+00 4.419468892004698168e-01
4.540000000000000036e+00 4.403031448847869456e-01
4.560000000000000497e+00 4.386677380557102435e-01
4.580000000000000071e+00 4.370395480738460403e-01
4.600000000000000533e+00 4.354194325958638534e-01
4.620000000000000107e+00 4.338065839475110375e-01
4.639999999999999680e+00 4.322018388739919392e-01
4.660000000000000142e+00 4.306041206390859299e-01
4.679999999999999716e+00 4.290142457057680714e-01
4.700000000000000178e+00 4.274314553693407959e-01
4.719999999999999751e+00 4.258565464157650915e-01
4.740000000000000213e+00 4.242884831012913582e-01
4.759999999999999787e+00 4.227280431171450137e-01
4.780000000000000249e+00 4.211745140426924605e-01
4.799999999999999822e+00 4.196286550347852473e-01
4.820000000000000284e+00 4.180894686472854671e-01
4.839999999999999858e+00 4.165576960420976360e-01
4.860000000000000320e+00 4.150326686064342296e-01
4.879999999999999893e+00 4.135151100266653001e-01
4.900000000000000355e+00 4.120040586557322526e-01
4.919999999999999929e+00 4.105002212047432208e-01
4.940000000000000391e+00 4.090029705834187790e-01
4.959999999999999964e+00 4.075129970095773824e-01
4.980000000000000426e+00 4.060293723155156131e-01
5.000000000000000000e+00 4.045527706902111720e-01
5.020000000000000462e+00 4.030826044549478682e-01
5.040000000000000036e+00 4.016195322175399318e-01
5.060000000000000497e+00 4.001626571330098026e-01
5.080000000000000071e+00 3.987126226596405809e-01
5.100000000000000533e+00 3.972688785789351695e-01
5.120000000000000107e+00 3.958320536158933534e-01
5.139999999999999680e+00 3.944012802405450491e-01
5.160000000000000142e+00 3.929771728461201041e-01
5.179999999999999716e+00 3.915592168692615394e-01
5.200000000000000178e+00 3.901480127588193847e-01
5.219999999999999751e+00 3.887427204282823401e-01
5.240000000000000213e+00 3.873439267559752319e-01
5.259999999999999787e+00 3.859511511628682112e-01
5.280000000000000249e+00 3.845649673176227412e-01
5.299999999999999822e+00 3.831845608302694717e-01
5.320000000000000284e+00 3.818104925082144163e-01
5.339999999999999858e+00 3.804423142093811827e-01
5.360000000000000320e+00 3.790805742163723124e-01
5.379999999999999893e+00 3.777244822030554894e-01
5.400000000000000355e+00 3.763745742522152660e-01
5.419999999999999929e+00 3.750304332249810857e-01
5.440000000000000391e+00 3.736925833182777046e-01
5.459999999999999964e+00 3.723602567418538567e-01
5.480000000000000426e+00 3.710339661101510478e-01
5.500000000000000000e+00 3.697133239585507769e-01
5.520000000000000462e+00 3.683988316122160378e-01
5.540000000000000036e+00 3.670897423850262298e-01
5.560000000000000497e+00 3.657865465963059393e-01
5.580000000000000071e+00 3.644888852234904331e-01
5.600000000000000533e+00 3.631972378541090118e-01
5.620000000000000107e+00 3.619108775628121499e-01
5.639999999999999680e+00 3.606302734703460966e-01
5.660000000000000142e+00 3.593550938534737504e-01
5.679999999999999716e+00 3.580857976224779415e-01
5.700000000000000178e+00 3.568216763507381928e-01
5.719999999999999751e+00 3.555631789860407843e-01
5.740000000000000213e+00 3.543100000446163245e-01
5.759999999999999787e+00 3.530625787516735170e-01
5.780000000000000249e+00 3.518202239921233709e-01
5.799999999999999822e+00 3.505833655007732363e-01
5.820000000000000284e+00 3.493517230503169202e-01
5.839999999999999858e+00 3.481257171098753878e-01
5.860000000000000320e+00 3.469046727576557965e-01
5.879999999999999893e+00 3.456890014146353773e-01
5.900000000000000355e+00 3.444784471983472485e-01
5.919999999999999929e+00 3.432734126922421525e-01
5.940000000000000391e+00 3.420732381131414979e-01
5.959999999999999964e+00 3.408783174109232816e-01
5.980000000000000426e+00 3.396884182027356536e-01
6.000000000000000000e+00 3.385039260024107488e-01
6.020000000000000462e+00 3.373241951693264906e-01
6.040000000000000036e+00 3.361496029725982715e-01
6.060000000000000497e+00 3.349799397456237893e-01
6.080000000000000071e+00 3.338155746981582572e-01
6.100000000000000533e+00 3.326558753901788790e-01
6.120000000000000107e+00 3.315012031516706426e-01
6.140000000000000568e+00 3.303513703066293661e-01
6.160000000000000142e+00 3.292067304792967164e-01
6.179999999999999716e+00 3.280666635382442076e-01
6.200000000000000178e+00 3.269315155706352671e-01
6.219999999999999751e+00 3.258011202193405453e-01
6.240000000000000213e+00 3.246758161979234614e-01
6.259999999999999787e+00 3.235549948376673091e-01
6.280000000000000249e+00 3.224389876370106212e-01
6.299999999999999822e+00 3.213276489364526589e-01
6.320000000000000284e+00 3.202213031729529424e-01
6.339999999999999858e+00 3.191193523372421459e-01
6.360000000000000320e+00 3.180221139537705577e-01
6.379999999999999893e+00 3.169294624867338150e-01
6.400000000000000355e+00 3.158417086925394135e-01
6.419999999999999929e+00 3.147582644574770105e-01
6.440000000000000391e+00 3.136794339100099638e-01
6.459999999999999964e+00 3.126051111085222933e-01
6.480000000000000426e+00 3.115355936894224631e-01
6.500000000000000000e+00 3.104703027070520038e-01
6.520000000000000462e+00 3.094095294375697192e-01
6.540000000000000036e+00 3.083531870458254276e-01
6.560000000000000497e+00 3.073015605755935464e-01
6.580000000000000071e+00 3.062540795553771455e-01
6.600000000000000533e+00 3.052110229206182468e-01
6.620000000000000107e+00 3.041723224942758375e-01
6.640000000000000568e+00 3.031382512238151028e-01
6.660000000000000142e+00 3.021082464490654207e-01
6.679999999999999716e+00 3.010825752462976124e-01
6.700000000000000178e+00 3.000611876853759297e-01
6.719999999999999751e+00 2.990443450846974049e-01
6.740000000000000213e+00 2.980314919612707669e-01
6.759999999999999787e+00 2.970228839855846847e-01
6.780000000000000249e+00 2.960184890983502126e-01
6.799999999999999822e+00 2.950185574288738399e-01
6.820000000000000284e+00 2.940225400636677922e-01
6.839999999999999858e+00 2.930306816944373560e-01
6.860000000000000320e+00 2.920429677899477605e-01
6.879999999999999893e+00 2.910596377048246253e-01
6.900000000000000355e+00 2.900801485118342793e-01
6.919999999999999929e+00 2.891047343260950697e-01
6.940000000000000391e+00 2.881333978332473178e-01
6.959999999999999964e+00 2.871663680036034005e-01
6.980000000000000426e+00 2.862031073354536770e-01
7.000000000000000000e+00 2.852438397462337960e-01
7.020000000000000462e+00 2.842885848573192820e-01
7.040000000000000036e+00 2.833375616224934057e-01
7.060000000000000497e+00 2.823902374255682357e-01
7.080000000000000071e+00 2.814468263432804984e-01
7.100000000000000533e+00 2.805073646802527243e-01
7.120000000000000107e+00 2.795720617202455127e-01
7.140000000000000568e+00 2.786403892116594561e-01
7.160000000000000142e+00 2.777125517268808075e-01
7.179999999999999716e+00 2.767886020286413062e-01
7.200000000000000178e+00 2.758687400571556148e-01
7.219999999999999751e+00 2.749524414219798873e-01
7.240000000000000213e+00 2.740399015080371981e-01
7.259999999999999787e+00 2.731311893372275756e-01
7.280000000000000249e+00 2.722264958137952107e-01
7.299999999999999822e+00 2.713252999210570282e-01
7.320000000000000284e+00 2.704277881549951856e-01
7.339999999999999858e+00 2.695340456228681458e-01
7.360000000000000320e+00 2.686442544826754264e-01
7.379999999999999893e+00 2.677578966187661447e-01
7.400000000000000355e+00 2.668751499193586785e-01
7.419999999999999929e+00 2.659961154274300132e-01
7.440000000000000391e+00 2.651209668275962827e-01
7.459999999999999964e+00 2.642491884458642581e-01
7.480000000000000426e+00 2.633809498274575778e-01
7.500000000000000000e+00 2.625163678247396937e-01
7.520000000000000462e+00 2.616556079058333650e-01
7.540000000000000036e+00 2.607981563911794254e-01
7.560000000000000497e+00 2.599441747322332463e-01
7.580000000000000071e+00 2.590937954869417803e-01
7.600000000000000533e+00 2.582471761487024065e-01
7.620000000000000107e+00 2.574038045961357657e-01
7.640000000000000568e+00 2.565638344214282163e-01
7.660000000000000142e+00 2.557274138061389479e-01
7.679999999999999716e+00 2.548946924963590988e-01
7.700000000000000178e+00 2.540651595025211762e-01
7.719999999999999751e+00 2.532389607780606844e-01
7.740000000000000213e+00 2.524162600673814927e-01
7.759999999999999787e+00 2.515971995830628138e-01
7.780000000000000249e+00 2.507812690498131269e-01
7.799999999999999822e+00 2.499686069895518392e-01
7.820000000000000284e+00 2.491593926694266603e-01
7.839999999999999858e+00 2.483537609693353410e-01
7.860000000000000320e+00 2.475512019185685253e-01
7.879999999999999893e+00 2.467518468021194511e-01
