# Electrodo circular de radio 6 mm y espesor 710.0 um.
# Volumen de simulacion (convencion z,y,x):
# N: 1024 x 1024 x 1024 | voxelSize:  0.02mm x 0.02mm x 0.02mm | FOV:  20.48mm x 20.48mm x 20.48mm
# 
# z [mm]		 delta[ppm]
0.000000000000000000e+00 4.435146652643715548e+00
2.000000000000000042e-02 4.396054719702210178e+00
4.000000000000000083e-02 4.356378950707508579e+00
5.999999999999999778e-02 4.316170407521116026e+00
8.000000000000000167e-02 4.275480190368599054e+00
1.000000000000000056e-01 4.234358905919711091e+00
1.199999999999999956e-01 4.192856529096896878e+00
1.400000000000000133e-01 4.151022255642606851e+00
1.600000000000000033e-01 4.108904382261715504e+00
1.799999999999999933e-01 4.066550186131459022e+00
2.000000000000000111e-01 4.024005812115848180e+00
2.200000000000000011e-01 3.981316175541484093e+00
2.399999999999999911e-01 3.938524861901865126e+00
2.600000000000000089e-01 3.895674052506629348e+00
2.800000000000000266e-01 3.852804440449088208e+00
2.999999999999999889e-01 3.809955178652180585e+00
3.200000000000000067e-01 3.767163813542854012e+00
3.400000000000000244e-01 3.724466254922954800e+00
3.599999999999999867e-01 3.681896727691811755e+00
3.800000000000000044e-01 3.639487762460061671e+00
4.000000000000000222e-01 3.597270164578766138e+00
4.199999999999999845e-01 3.555273023926196707e+00
4.400000000000000022e-01 3.513523699869053996e+00
4.600000000000000200e-01 3.472047848209217857e+00
4.799999999999999822e-01 3.430869420139895709e+00
5.000000000000000000e-01 3.390010704041816147e+00
5.200000000000000178e-01 3.349492336227121392e+00
5.400000000000000355e-01 3.309333355105448682e+00
5.600000000000000533e-01 3.269551221329260127e+00
5.799999999999999600e-01 3.230161881823597536e+00
5.999999999999999778e-01 3.191179796972027027e+00
6.199999999999999956e-01 3.152618012086540578e+00
6.400000000000000133e-01 3.114488189363008086e+00
6.600000000000000311e-01 3.076800684545025089e+00
6.800000000000000488e-01 3.039564581591804870e+00
7.000000000000000666e-01 3.002787772526998022e+00
7.199999999999999734e-01 2.966476992996227580e+00
7.399999999999999911e-01 2.930637903569202063e+00
7.600000000000000089e-01 2.895275124656130572e+00
7.800000000000000266e-01 2.860392317821605079e+00
8.000000000000000444e-01 2.825992218803558664e+00
8.200000000000000622e-01 2.792076717685900711e+00
8.399999999999999689e-01 2.758646889050509365e+00
8.599999999999999867e-01 2.725703070126037186e+00
8.800000000000000044e-01 2.693244887350374484e+00
9.000000000000000222e-01 2.661271331858449773e+00
9.200000000000000400e-01 2.629780781968082959e+00
9.400000000000000577e-01 2.598771075582918311e+00
9.599999999999999645e-01 2.568239528302945551e+00
9.799999999999999822e-01 2.538183002499476260e+00
1.000000000000000000e+00 2.508597920920369706e+00
1.020000000000000018e+00 2.479480332340900262e+00
1.040000000000000036e+00 2.450825920658588952e+00
1.060000000000000053e+00 2.422630067140406851e+00
1.080000000000000071e+00 2.394887855108305263e+00
1.100000000000000089e+00 2.367594128891262084e+00
1.120000000000000107e+00 2.340743494273027192e+00
1.140000000000000124e+00 2.314330374321524886e+00
1.159999999999999920e+00 2.288349005827343685e+00
1.179999999999999938e+00 2.262793492226103709e+00
1.199999999999999956e+00 2.237657796286340428e+00
1.219999999999999973e+00 2.212935790366985955e+00
1.239999999999999991e+00 2.188621245635870238e+00
1.260000000000000009e+00 2.164707879917157296e+00
1.280000000000000027e+00 2.141189343725528271e+00
1.300000000000000044e+00 2.118059265960963611e+00
1.320000000000000062e+00 2.095311237044830133e+00
1.340000000000000080e+00 2.072938852713857028e+00
1.360000000000000098e+00 2.050935694533026599e+00
1.380000000000000115e+00 2.029295372029696676e+00
1.400000000000000133e+00 2.008011500847667996e+00
1.419999999999999929e+00 1.987077743447516420e+00
1.439999999999999947e+00 1.966487785147613909e+00
1.459999999999999964e+00 1.946235373599650487e+00
1.479999999999999982e+00 1.926314292946793350e+00
1.500000000000000000e+00 1.906718402264917289e+00
1.520000000000000018e+00 1.887441608047302877e+00
1.540000000000000036e+00 1.868477901783382800e+00
1.560000000000000053e+00 1.849821330962697630e+00
1.580000000000000071e+00 1.831466035944417037e+00
1.600000000000000089e+00 1.813406219653201479e+00
1.620000000000000107e+00 1.795636183874981917e+00
1.640000000000000124e+00 1.778150297801805779e+00
1.660000000000000142e+00 1.760943033872523156e+00
1.679999999999999938e+00 1.744008935305760843e+00
1.699999999999999956e+00 1.727342651588535727e+00
1.719999999999999973e+00 1.710938905123124743e+00
1.739999999999999991e+00 1.694792526452179038e+00
1.760000000000000009e+00 1.678898420130020552e+00
1.780000000000000027e+00 1.663251599759805632e+00
1.800000000000000044e+00 1.647847153188770397e+00
1.820000000000000062e+00 1.632680277421172388e+00
1.840000000000000080e+00 1.617746243224482017e+00
1.860000000000000098e+00 1.603040429971299030e+00
1.880000000000000115e+00 1.588558289734802509e+00
1.900000000000000133e+00 1.574295382103452878e+00
1.919999999999999929e+00 1.560247337833908787e+00
1.939999999999999947e+00 1.546409893674060898e+00
1.959999999999999964e+00 1.532778855635000159e+00
1.979999999999999982e+00 1.519350133850600360e+00
2.000000000000000000e+00 1.506119705522128482e+00
2.020000000000000018e+00 1.493083649836245863e+00
2.040000000000000036e+00 1.480238110630903270e+00
2.060000000000000053e+00 1.467579331388049857e+00
2.080000000000000071e+00 1.455103617663171089e+00
2.100000000000000089e+00 1.442807372164200963e+00
2.120000000000000107e+00 1.430687056983493299e+00
2.140000000000000124e+00 1.418739228770242722e+00
2.160000000000000142e+00 1.406960500798755120e+00
2.180000000000000160e+00 1.395347578238113950e+00
2.200000000000000178e+00 1.383897220088126101e+00
2.220000000000000195e+00 1.372606274546881666e+00
2.240000000000000213e+00 1.361471640841902087e+00
2.260000000000000231e+00 1.350490304693634958e+00
2.280000000000000249e+00 1.339659300067626457e+00
2.300000000000000266e+00 1.328975744729773201e+00
2.319999999999999840e+00 1.318436801942320935e+00
2.339999999999999858e+00 1.308039716104809402e+00
2.359999999999999876e+00 1.297781774415648126e+00
2.379999999999999893e+00 1.287660342591075535e+00
2.399999999999999911e+00 1.277672826511660809e+00
2.419999999999999929e+00 1.267816708010312432e+00
2.439999999999999947e+00 1.258089506522437118e+00
2.459999999999999964e+00 1.248488814932892543e+00
2.479999999999999982e+00 1.239012261246629221e+00
2.500000000000000000e+00 1.229657544483606646e+00
2.520000000000000018e+00 1.220422396386436681e+00
2.540000000000000036e+00 1.211304617351534274e+00
2.560000000000000053e+00 1.202302038188725275e+00
2.580000000000000071e+00 1.193412556076325570e+00
2.600000000000000089e+00 1.184634096387598312e+00
2.620000000000000107e+00 1.175964648656995237e+00
2.640000000000000124e+00 1.167402228487065985e+00
2.660000000000000142e+00 1.158944913512710118e+00
2.680000000000000160e+00 1.150590805402267991e+00
2.700000000000000178e+00 1.142338065806354441e+00
2.720000000000000195e+00 1.134184878465751778e+00
2.740000000000000213e+00 1.126129485131217356e+00
2.760000000000000231e+00 1.118170147791007540e+00
2.780000000000000249e+00 1.110305184547938362e+00
2.800000000000000266e+00 1.102532931978409625e+00
2.819999999999999840e+00 1.094851780952910136e+00
2.839999999999999858e+00 1.087260139138725545e+00
2.859999999999999876e+00 1.079756466750060095e+00
2.879999999999999893e+00 1.072339239205737815e+00
2.899999999999999911e+00 1.065006982795151824e+00
2.919999999999999929e+00 1.057758237502623322e+00
2.939999999999999947e+00 1.050591592575403022e+00
2.959999999999999964e+00 1.043505649525584111e+00
2.979999999999999982e+00 1.036499057586506733e+00
3.000000000000000000e+00 1.029570476903458820e+00
3.020000000000000018e+00 1.022718613864930459e+00
3.040000000000000036e+00 1.015942184492633515e+00
3.060000000000000053e+00 1.009239949634175515e+00
3.080000000000000071e+00 1.002610678563321311e+00
3.100000000000000089e+00 9.960531840207833554e-01
3.120000000000000107e+00 9.895662860349700995e-01
3.140000000000000124e+00 9.831488467977700374e-01
3.160000000000000142e+00 9.767997347163976940e-01
3.180000000000000160e+00 9.705178591112273434e-01
3.200000000000000178e+00 9.643021345086901785e-01
3.220000000000000195e+00 9.581515151483978032e-01
3.240000000000000213e+00 9.520649595274348620e-01
3.260000000000000231e+00 9.460414647041784919e-01
3.280000000000000249e+00 9.400800311037220691e-01
3.300000000000000266e+00 9.341796966060003093e-01
3.320000000000000284e+00 9.283395016224221807e-01
3.339999999999999858e+00 9.225585229561233946e-01
3.359999999999999876e+00 9.168358391592953405e-01
3.379999999999999893e+00 9.111705641535692290e-01
3.399999999999999911e+00 9.055618128778883946e-01
3.419999999999999929e+00 9.000087346572427371e-01
3.439999999999999947e+00 8.945104791503346586e-01
3.459999999999999964e+00 8.890662294550941702e-01
3.479999999999999982e+00 8.836751683657230183e-01
3.500000000000000000e+00 8.783365112036413125e-01
3.520000000000000018e+00 8.730494723929129730e-01
3.540000000000000036e+00 8.678132980054703571e-01
3.560000000000000053e+00 8.626272326642752120e-01
3.580000000000000071e+00 8.574905517918658404e-01
3.600000000000000089e+00 8.524025288500298725e-01
3.620000000000000107e+00 8.473624672809458858e-01
3.640000000000000124e+00 8.423696680924501745e-01
3.660000000000000142e+00 8.374234614812670063e-01
3.680000000000000160e+00 8.325231747723755849e-01
3.700000000000000178e+00 8.276681637140037573e-01
3.720000000000000195e+00 8.228577807799563049e-01
3.740000000000000213e+00 8.180914061262664072e-01
3.760000000000000231e+00 8.133684162647289995e-01
3.780000000000000249e+00 8.086882146713139097e-01
3.800000000000000266e+00 8.040502008394957434e-01
3.820000000000000284e+00 7.994538005307216810e-01
3.839999999999999858e+00 7.948984352155470390e-01
3.859999999999999876e+00 7.903835519566605461e-01
3.879999999999999893e+00 7.859085932461346014e-01
3.899999999999999911e+00 7.814730265117254548e-01
3.919999999999999929e+00 7.770763143579708654e-01
3.939999999999999947e+00 7.727179436866711271e-01
3.959999999999999964e+00 7.683973963498883508e-01
3.979999999999999982e+00 7.641141778756871394e-01
4.000000000000000000e+00 7.598677885405368260e-01
4.020000000000000462e+00 7.556577516915976567e-01
4.040000000000000036e+00 7.514835852462887766e-01
4.060000000000000497e+00 7.473448296026115045e-01
4.080000000000000071e+00 7.432410195731038449e-01
4.099999999999999645e+00 7.391717118748689641e-01
4.120000000000000107e+00 7.351364575054145645e-01
4.139999999999999680e+00 7.311348288042263110e-01
4.160000000000000142e+00 7.271663922774805888e-01
4.179999999999999716e+00 7.232307352231827080e-01
4.200000000000000178e+00 7.193274390119690498e-01
4.219999999999999751e+00 7.154561052680504796e-01
4.240000000000000213e+00 7.116163296127877569e-01
4.259999999999999787e+00 7.078077273938181424e-01
4.280000000000000249e+00 7.040299078983911496e-01
4.299999999999999822e+00 7.002824996232299704e-01
4.320000000000000284e+00 6.965651249640586462e-01
4.339999999999999858e+00 6.928774250189295714e-01
4.360000000000000320e+00 6.892190347606569345e-01
4.379999999999999893e+00 6.855896073665177504e-01
4.400000000000000355e+00 6.819887898797398762e-01
4.419999999999999929e+00 6.784162470586426741e-01
4.440000000000000391e+00 6.748716375336484274e-01
4.459999999999999964e+00 6.713546371690755077e-01
4.480000000000000426e+00 6.678649157215992282e-01
4.500000000000000000e+00 6.644021597080592700e-01
4.520000000000000462e+00 6.609660495715803386e-01
4.540000000000000036e+00 6.575562820489442295e-01
4.560000000000000497e+00 6.541725478500172164e-01
4.580000000000000071e+00 6.508145535183749164e-01
4.600000000000000533e+00 6.474819996300017477e-01
4.620000000000000107e+00 6.441746021409955336e-01
4.639999999999999680e+00 6.408920711109714619e-01
4.660000000000000142e+00 6.376341315318174718e-01
4.679999999999999716e+00 6.344005025815165899e-01
4.700000000000000178e+00 6.311909179280884574e-01
4.719999999999999751e+00 6.280051055190104536e-01
4.740000000000000213e+00 6.248428073545920780e-01
4.759999999999999787e+00 6.217037598185040093e-01
4.780000000000000249e+00 6.185877129149643938e-01
4.799999999999999822e+00 6.154944111453352074e-01
4.820000000000000284e+00 6.124236122036591512e-01
4.839999999999999858e+00 6.093750684045776689e-01
4.860000000000000320e+00 6.063485448318691740e-01
4.879999999999999893e+00 6.033438013224385887e-01
4.900000000000000355e+00 6.003606100626285302e-01
4.919999999999999929e+00 5.973987381333386582e-01
4.940000000000000391e+00 5.944579645490059017e-01
4.959999999999999964e+00 5.915380633683905431e-01
4.980000000000000426e+00 5.886388201712203783e-01
5.000000000000000000e+00 5.857600157395245200e-01
5.020000000000000462e+00 5.829014419670689451e-01
5.040000000000000036e+00 5.800628861155473492e-01
5.060000000000000497e+00 5.772441461520613215e-01
5.080000000000000071e+00 5.744450155848450645e-01
5.100000000000000533e+00 5.716652982241160474e-01
5.120000000000000107e+00 5.689047936014890450e-01
5.139999999999999680e+00 5.661633111496381376e-01
5.160000000000000142e+00 5.634406562098963622e-01
5.179999999999999716e+00 5.607366436262771758e-01
5.200000000000000178e+00 5.580510843452226588e-01
5.219999999999999751e+00 5.553837984196198230e-01
5.240000000000000213e+00 5.527346022050401153e-01
5.259999999999999787e+00 5.501033207694688842e-01
5.280000000000000249e+00 5.474897756898425838e-01
5.299999999999999822e+00 5.448937968633171813e-01
5.320000000000000284e+00 5.423152109082703953e-01
5.339999999999999858e+00 5.397538523730281979e-01
5.360000000000000320e+00 5.372095527449664010e-01
5.379999999999999893e+00 5.346821510526750254e-01
5.400000000000000355e+00 5.321714834872245392e-01
5.419999999999999929e+00 5.296773933938092593e-01
5.440000000000000391e+00 5.271997215086853261e-01
5.459999999999999964e+00 5.247383153364336694e-01
5.480000000000000426e+00 5.222930200064874739e-01
5.500000000000000000e+00 5.198636870322161929e-01
5.520000000000000462e+00 5.174501657904145846e-01
5.540000000000000036e+00 5.150523116584844185e-01
5.560000000000000497e+00 5.126699781206903728e-01
5.580000000000000071e+00 5.103030242797677030e-01
5.600000000000000533e+00 5.079513075932075017e-01
5.620000000000000107e+00 5.056146907556799963e-01
5.639999999999999680e+00 5.032930350690599797e-01
5.660000000000000142e+00 5.009862066921099144e-01
5.679999999999999716e+00 4.986940706473965701e-01
5.700000000000000178e+00 4.964164964347382858e-01
5.719999999999999751e+00 4.941533526786374142e-01
5.740000000000000213e+00 4.919045121020275690e-01
5.759999999999999787e+00 4.896698468172939189e-01
5.780000000000000249e+00 4.874492326569118128e-01
5.799999999999999822e+00 4.852425451115990329e-01
5.820000000000000284e+00 4.830496630144859860e-01
5.839999999999999858e+00 4.808704651293752574e-01
5.860000000000000320e+00 4.787048331851164185e-01
5.879999999999999893e+00 4.765526491174748580e-01
5.900000000000000355e+00 4.744137974503976340e-01
5.919999999999999929e+00 4.722881631944219616e-01
5.940000000000000391e+00 4.701756335715653878e-01
5.959999999999999964e+00 4.680760965737158497e-01
5.980000000000000426e+00 4.659894420279014349e-01
6.000000000000000000e+00 4.639155608175477008e-01
6.020000000000000462e+00 4.618543452848986597e-01
6.040000000000000036e+00 4.598056891185514639e-01
6.060000000000000497e+00 4.577694870898312840e-01
6.080000000000000071e+00 4.557456356094515271e-01
6.100000000000000533e+00 4.537340317946425561e-01
6.120000000000000107e+00 4.517345746983397747e-01
6.140000000000000568e+00 4.497471637038885084e-01
6.160000000000000142e+00 4.477717004295811432e-01
6.179999999999999716e+00 4.458080864477718674e-01
6.200000000000000178e+00 4.438562258681547079e-01
6.219999999999999751e+00 4.419160223781100072e-01
6.240000000000000213e+00 4.399873825075562017e-01
6.259999999999999787e+00 4.380702119873602363e-01
6.280000000000000249e+00 4.361644196991573130e-01
6.299999999999999822e+00 4.342699133486512264e-01
6.320000000000000284e+00 4.323866041032425334e-01
6.339999999999999858e+00 4.305144015770355770e-01
6.360000000000000320e+00 4.286532191596930108e-01
6.379999999999999893e+00 4.268029683099665017e-01
6.400000000000000355e+00 4.249635645786357108e-01
6.419999999999999929e+00 4.231349212073459154e-01
6.440000000000000391e+00 4.213169558490954536e-01
6.459999999999999964e+00 4.195095834691693337e-01
6.480000000000000426e+00 4.177127237660600567e-01
6.500000000000000000e+00 4.159262933712395416e-01
6.520000000000000462e+00 4.141502139740401156e-01
6.540000000000000036e+00 4.123844038169949822e-01
6.560000000000000497e+00 4.106287865276186944e-01
6.580000000000000071e+00 4.088832819060112533e-01
6.600000000000000533e+00 4.071478154671279159e-01
6.620000000000000107e+00 4.054223085173089269e-01
6.640000000000000568e+00 4.037066884100445896e-01
6.660000000000000142e+00 4.020008779080544992e-01
6.679999999999999716e+00 4.003048061562224924e-01
6.700000000000000178e+00 3.986183973258191626e-01
6.719999999999999751e+00 3.969415823076807293e-01
6.740000000000000213e+00 3.952742866351175444e-01
6.759999999999999787e+00 3.936164429011015931e-01
6.780000000000000249e+00 3.919679779563680078e-01
6.799999999999999822e+00 3.903288260537825516e-01
6.820000000000000284e+00 3.886989153180701040e-01
6.839999999999999858e+00 3.870781816212567339e-01
6.860000000000000320e+00 3.854665543203988354e-01
6.879999999999999893e+00 3.838639708673899920e-01
6.900000000000000355e+00 3.822703618110308010e-01
6.919999999999999929e+00 3.806856661451873403e-01
6.940000000000000391e+00 3.791098155714743290e-01
6.959999999999999964e+00 3.775427505891741919e-01
6.980000000000000426e+00 3.759844040147359845e-01
7.000000000000000000e+00 3.744347178175992941e-01
7.020000000000000462e+00 3.728936258926319747e-01
7.040000000000000036e+00 3.713610716454076588e-01
7.060000000000000497e+00 3.698369900136433408e-01
7.080000000000000071e+00 3.683213258062185691e-01
7.100000000000000533e+00 3.668140149696045293e-01
7.120000000000000107e+00 3.653150036843164639e-01
7.140000000000000568e+00 3.638242288722241535e-01
7.160000000000000142e+00 3.623416380549157045e-01
7.179999999999999716e+00 3.608671690977034441e-01
7.200000000000000178e+00 3.594007708337526585e-01
7.219999999999999751e+00 3.579423820405097656e-01
7.240000000000000213e+00 3.564919528342564981e-01
7.259999999999999787e+00 3.550494228745900149e-01
7.280000000000000249e+00 3.536147435334348610e-01
7.299999999999999822e+00 3.521878553231155839e-01
7.320000000000000284e+00 3.507687108446885804e-01
7.339999999999999858e+00 3.493572514350444802e-01
7.360000000000000320e+00 3.479534308987848323e-01
7.379999999999999893e+00 3.465571913696821604e-01
7.400000000000000355e+00 3.451684878311878646e-01
7.419999999999999929e+00 3.437872631874687723e-01
7.440000000000000391e+00 3.424134735769912008e-01
7.459999999999999964e+00 3.410470626482404732e-01
7.480000000000000426e+00 3.396879876716920044e-01
7.500000000000000000e+00 3.383361930152145591e-01
7.520000000000000462e+00 3.369916370590855803e-01
7.540000000000000036e+00 3.356542648659673334e-01
7.560000000000000497e+00 3.343240359045154264e-01
7.580000000000000071e+00 3.330008959086692699e-01
7.600000000000000533e+00 3.316848054147805147e-01
7.620000000000000107e+00 3.303757108048414048e-01
7.640000000000000568e+00 3.290735736629476493e-01
7.660000000000000142e+00 3.277783409969554640e-01
7.679999999999999716e+00 3.264899754194454662e-01
7.700000000000000178e+00 3.252084245421645869e-01
7.719999999999999751e+00 3.239336519876019893e-01
7.740000000000000213e+00 3.226656059504242058e-01
7.759999999999999787e+00 3.214042510451056156e-01
7.780000000000000249e+00 3.201495360284210556e-01
7.799999999999999822e+00 3.189014264895367323e-01
7.820000000000000284e+00 3.176598717274899952e-01
7.839999999999999858e+00 3.164248382894626066e-01
7.860000000000000320e+00 3.151962759970076688e-01
7.879999999999999893e+00 3.139741523392426958e-01
