# Electrodo circular de radio 6 mm y espesor 710.0 um.
# Volumen de simulacion (convencion z,y,x):
# N: 1024 x 1024 x 1024 | voxelSize:  0.02mm x 0.02mm x 0.02mm | FOV:  20.48mm x 20.48mm x 20.48mm
# 
# z [mm]		 delta[ppm]
0.000000000000000000e+00 3.934997997134779268e+00
2.000000000000000042e-02 3.911279103968217097e+00
4.000000000000000083e-02 3.887097629177500124e+00
5.999999999999999778e-02 3.862477247580016204e+00
8.000000000000000167e-02 3.837441753712842907e+00
1.000000000000000056e-01 3.812014922510394310e+00
1.199999999999999956e-01 3.786220476496059195e+00
1.400000000000000133e-01 3.760082030538201447e+00
1.600000000000000033e-01 3.733623046237469989e+00
1.799999999999999933e-01 3.706866793850331465e+00
2.000000000000000111e-01 3.679836303270533016e+00
2.200000000000000011e-01 3.652554333747747517e+00
2.399999999999999911e-01 3.625043326214823836e+00
2.600000000000000089e-01 3.597325378891698122e+00
2.800000000000000266e-01 3.569422202244303399e+00
2.999999999999999889e-01 3.541355100252860488e+00
3.200000000000000067e-01 3.513144928666672051e+00
3.400000000000000244e-01 3.484812081886953461e+00
3.599999999999999867e-01 3.456376454925406794e+00
3.800000000000000044e-01 3.427857435862890600e+00
4.000000000000000222e-01 3.399273871661296464e+00
4.199999999999999845e-01 3.370644066106062375e+00
4.400000000000000022e-01 3.341985749523344928e+00
4.600000000000000200e-01 3.313316082038015864e+00
4.799999999999999822e-01 3.284651627074534730e+00
5.000000000000000000e-01 3.256008359690535148e+00
5.200000000000000178e-01 3.227401643682418442e+00
5.400000000000000355e-01 3.198846244684424356e+00
5.600000000000000533e-01 3.170356310582910897e+00
5.799999999999999600e-01 3.141945389018010903e+00
5.999999999999999778e-01 3.113626410783036480e+00
6.199999999999999956e-01 3.085411711322669337e+00
6.400000000000000133e-01 3.057313016724449106e+00
6.600000000000000311e-01 3.029341468782964508e+00
6.800000000000000488e-01 3.001507613190841361e+00
7.000000000000000666e-01 2.973821427725016342e+00
7.199999999999999734e-01 2.946292312214218168e+00
7.399999999999999911e-01 2.918929119405762940e+00
7.600000000000000089e-01 2.891740146310109338e+00
7.800000000000000266e-01 2.864733167317987217e+00
8.000000000000000444e-01 2.837915426521107065e+00
8.200000000000000622e-01 2.811293672671912436e+00
8.399999999999999689e-01 2.784874152118909763e+00
8.599999999999999867e-01 2.758662645229251975e+00
8.800000000000000044e-01 2.732664459594116302e+00
9.000000000000000222e-01 2.706884467568731800e+00
9.200000000000000400e-01 2.681327099450368845e+00
9.400000000000000577e-01 2.655996381826620123e+00
9.599999999999999645e-01 2.630895930454790754e+00
9.799999999999999822e-01 2.606028989147954444e+00
1.000000000000000000e+00 2.581398422132631598e+00
1.020000000000000018e+00 2.557006753239849495e+00
1.040000000000000036e+00 2.532856157546394371e+00
1.060000000000000053e+00 2.508948500675430182e+00
1.080000000000000071e+00 2.485285329570908530e+00
1.100000000000000089e+00 2.461867911746844495e+00
1.120000000000000107e+00 2.438697225070392438e+00
1.140000000000000124e+00 2.415773996831337644e+00
1.159999999999999920e+00 2.393098692447104270e+00
1.179999999999999938e+00 2.370671554252836266e+00
1.199999999999999956e+00 2.348492589062598057e+00
1.219999999999999973e+00 2.326561606606443178e+00
1.239999999999999991e+00 2.304878205912249900e+00
1.260000000000000009e+00 2.283441813338353832e+00
1.280000000000000027e+00 2.262251667755769358e+00
1.300000000000000044e+00 2.241306858144287428e+00
1.320000000000000062e+00 2.220606307577659866e+00
1.340000000000000080e+00 2.200148810366866048e+00
1.360000000000000098e+00 2.179933014860675478e+00
1.380000000000000115e+00 2.159957460133086649e+00
1.400000000000000133e+00 2.140220557628020437e+00
1.419999999999999929e+00 2.120720627398235969e+00
1.439999999999999947e+00 2.101455878628156970e+00
1.459999999999999964e+00 2.082424445439813088e+00
1.479999999999999982e+00 2.063624366338892013e+00
1.500000000000000000e+00 2.045053619609231266e+00
1.520000000000000018e+00 2.026710101728784963e+00
1.540000000000000036e+00 2.008591662378591991e+00
1.560000000000000053e+00 1.990696081882446400e+00
1.580000000000000071e+00 1.973021105858971502e+00
1.600000000000000089e+00 1.955564421737800096e+00
1.620000000000000107e+00 1.938323693085035160e+00
1.640000000000000124e+00 1.921296535252915660e+00
1.660000000000000142e+00 1.904480549409414802e+00
1.679999999999999938e+00 1.887873297375652015e+00
1.699999999999999956e+00 1.871472335390183872e+00
1.719999999999999973e+00 1.855275188190641300e+00
1.739999999999999991e+00 1.839279382542219343e+00
1.760000000000000009e+00 1.823482420616354904e+00
1.780000000000000027e+00 1.807881813311575492e+00
1.800000000000000044e+00 1.792475052982901884e+00
1.820000000000000062e+00 1.777259646581421881e+00
1.840000000000000080e+00 1.762233087783924290e+00
1.860000000000000098e+00 1.747392889975556418e+00
1.880000000000000115e+00 1.732736557829353208e+00
1.900000000000000133e+00 1.718261620154122093e+00
1.919999999999999929e+00 1.703965600969201244e+00
1.939999999999999947e+00 1.689846052237498064e+00
1.959999999999999964e+00 1.675900524480570697e+00
1.979999999999999982e+00 1.662126599414385897e+00
2.000000000000000000e+00 1.648521860145617524e+00
2.020000000000000018e+00 1.635083923725473953e+00
2.040000000000000036e+00 1.621810410967675642e+00
2.060000000000000053e+00 1.608698978933437607e+00
2.080000000000000071e+00 1.595747290407660168e+00
2.100000000000000089e+00 1.582953046326016189e+00
2.120000000000000107e+00 1.570313954945487422e+00
2.140000000000000124e+00 1.557827764222442291e+00
2.160000000000000142e+00 1.545492230709974990e+00
2.180000000000000160e+00 1.533305151893992857e+00
2.200000000000000178e+00 1.521264334849484978e+00
2.220000000000000195e+00 1.509367628539769024e+00
2.240000000000000213e+00 1.497612892260541617e+00
2.260000000000000231e+00 1.485998027905796937e+00
2.280000000000000249e+00 1.474520948228251971e+00
2.300000000000000266e+00 1.463179609073886667e+00
2.319999999999999840e+00 1.451971977484391330e+00
2.339999999999999858e+00 1.440896063900865887e+00
2.359999999999999876e+00 1.429949890133856982e+00
2.379999999999999893e+00 1.419131521535397233e+00
2.399999999999999911e+00 1.408439034859564565e+00
2.419999999999999929e+00 1.397870550400918566e+00
2.439999999999999947e+00 1.387424199768522159e+00
2.459999999999999964e+00 1.377098157987702409e+00
2.479999999999999982e+00 1.366890611208168016e+00
2.500000000000000000e+00 1.356799788765075565e+00
2.520000000000000018e+00 1.346823930841995587e+00
2.540000000000000036e+00 1.336961320486385274e+00
2.560000000000000053e+00 1.327210251246067729e+00
2.580000000000000071e+00 1.317569059133455900e+00
2.600000000000000089e+00 1.308036090254441675e+00
2.620000000000000107e+00 1.298609732715007903e+00
2.640000000000000124e+00 1.289288384259568598e+00
2.660000000000000142e+00 1.280070484112997287e+00
2.680000000000000160e+00 1.270954480645786200e+00
2.700000000000000178e+00 1.261938863143959200e+00
2.720000000000000195e+00 1.253022129516739636e+00
2.740000000000000213e+00 1.244202817986373555e+00
2.760000000000000231e+00 1.235479474854364046e+00
2.780000000000000249e+00 1.226850686102805010e+00
2.800000000000000266e+00 1.218315045233745009e+00
2.819999999999999840e+00 1.209871184773265718e+00
2.839999999999999858e+00 1.201517744198979498e+00
2.859999999999999876e+00 1.193253401337781794e+00
2.879999999999999893e+00 1.185076840395086428e+00
2.899999999999999911e+00 1.176986783236950718e+00
2.919999999999999929e+00 1.168981957535134120e+00
2.939999999999999947e+00 1.161061127924031933e+00
2.959999999999999964e+00 1.153223064274385479e+00
2.979999999999999982e+00 1.145466572715329256e+00
3.000000000000000000e+00 1.137790464050047357e+00
3.020000000000000018e+00 1.130193584633083059e+00
3.040000000000000036e+00 1.122674784940074888e+00
3.060000000000000053e+00 1.115232950290359071e+00
3.080000000000000071e+00 1.107866969583456651e+00
3.100000000000000089e+00 1.100575765856887989e+00
3.120000000000000107e+00 1.093358265200985668e+00
3.140000000000000124e+00 1.086213427141810017e+00
3.160000000000000142e+00 1.079140213746362598e+00
3.180000000000000160e+00 1.072137619820455523e+00
3.200000000000000178e+00 1.065204642215379804e+00
3.220000000000000195e+00 1.058340309830567261e+00
3.240000000000000213e+00 1.051543653133285128e+00
3.260000000000000231e+00 1.044813733955926915e+00
3.280000000000000249e+00 1.038149615239357004e+00
3.300000000000000266e+00 1.031550390614669466e+00
3.320000000000000284e+00 1.025015154381318849e+00
3.339999999999999858e+00 1.018543030863236165e+00
3.359999999999999876e+00 1.012133144631959913e+00
3.379999999999999893e+00 1.005784649627028626e+00
3.399999999999999911e+00 9.994966996348632060e-01
3.419999999999999929e+00 9.932684771633978338e-01
3.439999999999999947e+00 9.870991641865826116e-01
3.459999999999999964e+00 9.809879707633054613e-01
3.479999999999999982e+00 9.749341060578682328e-01
3.500000000000000000e+00 9.689368066933303769e-01
3.520000000000000018e+00 9.629953080574847890e-01
3.540000000000000036e+00 9.571088723808263143e-01
3.560000000000000053e+00 9.512767603380590797e-01
3.580000000000000071e+00 9.454982588409692745e-01
3.600000000000000089e+00 9.397726529446954746e-01
3.620000000000000107e+00 9.340992533458932767e-01
3.640000000000000124e+00 9.284773686034686335e-01
3.660000000000000142e+00 9.229063323325410462e-01
3.680000000000000160e+00 9.173854757485498945e-01
3.700000000000000178e+00 9.119141545475983879e-01
3.720000000000000195e+00 9.064917217833695640e-01
3.740000000000000213e+00 9.011175544245559887e-01
3.760000000000000231e+00 8.957910265732027533e-01
3.780000000000000249e+00 8.905115356900464851e-01
3.800000000000000266e+00 8.852784761634264754e-01
3.820000000000000284e+00 8.800912651934539310e-01
3.839999999999999858e+00 8.749493167198623134e-01
3.859999999999999876e+00 8.698520669560592111e-01
3.879999999999999893e+00 8.647989486847629248e-01
3.899999999999999911e+00 8.597894164331114641e-01
3.919999999999999929e+00 8.548229211441903397e-01
3.939999999999999947e+00 8.498989349844978669e-01
3.959999999999999964e+00 8.450169263999457447e-01
3.979999999999999982e+00 8.401763845470796577e-01
4.000000000000000000e+00 8.353767947414348916e-01
4.020000000000000462e+00 8.306176625040431194e-01
4.040000000000000036e+00 8.258984894104504093e-01
4.060000000000000497e+00 8.212187967441884062e-01
4.080000000000000071e+00 8.165781017540668651e-01
4.099999999999999645e+00 8.119759409063960209e-01
4.120000000000000107e+00 8.074118465586220816e-01
4.139999999999999680e+00 8.028853698021929386e-01
4.160000000000000142e+00 7.983960575599501341e-01
4.179999999999999716e+00 7.939434750116577399e-01
4.200000000000000178e+00 7.895271831229546677e-01
4.219999999999999751e+00 7.851467606457275261e-01
4.240000000000000213e+00 7.808017820857691138e-01
4.259999999999999787e+00 7.764918392702642169e-01
4.280000000000000249e+00 7.722165197617520960e-01
4.299999999999999822e+00 7.679754279851155330e-01
4.320000000000000284e+00 7.637681640947782125e-01
4.339999999999999858e+00 7.595943446537112287e-01
4.360000000000000320e+00 7.554535819612339109e-01
4.379999999999999893e+00 7.513455042766838954e-01
4.400000000000000355e+00 7.472697356145023839e-01
4.419999999999999929e+00 7.432259155053323463e-01
4.440000000000000391e+00 7.392136792655377153e-01
4.459999999999999964e+00 7.352326772885970918e-01
4.480000000000000426e+00 7.312825557955600075e-01
4.500000000000000000e+00 7.273629756496995391e-01
4.520000000000000462e+00 7.234735935948422014e-01
4.540000000000000036e+00 7.196140805863985301e-01
4.560000000000000497e+00 7.157841035238348137e-01
4.580000000000000071e+00 7.119833430912845262e-01
4.600000000000000533e+00 7.082114759909048374e-01
4.620000000000000107e+00 7.044681922863756940e-01
4.639999999999999680e+00 7.007531781432350115e-01
4.660000000000000142e+00 6.970661326686932169e-01
4.679999999999999716e+00 6.934067511654633531e-01
4.700000000000000178e+00 6.897747414614354700e-01
4.719999999999999751e+00 6.861698076828945947e-01
4.740000000000000213e+00 6.825916660676806247e-01
4.759999999999999787e+00 6.790400292641478597e-01
4.780000000000000249e+00 6.755146216215308641e-01
4.799999999999999822e+00 6.720151640203659849e-01
4.820000000000000284e+00 6.685413886339058864e-01
4.839999999999999858e+00 6.650930242961454741e-01
4.860000000000000320e+00 6.616698107282198427e-01
4.879999999999999893e+00 6.582714844495810569e-01
4.900000000000000355e+00 6.548977924633916370e-01
4.919999999999999929e+00 6.515484787168482894e-01
4.940000000000000391e+00 6.482232972396853032e-01
4.959999999999999964e+00 6.449219991590163792e-01
4.980000000000000426e+00 6.416443452851333662e-01
5.000000000000000000e+00 6.383900936867221709e-01
5.020000000000000462e+00 6.351590117182427386e-01
5.040000000000000036e+00 6.319508641607107791e-01
5.060000000000000497e+00 6.287654246850402640e-01
5.080000000000000071e+00 6.256024645640864135e-01
5.100000000000000533e+00 6.224617635663831638e-01
5.120000000000000107e+00 6.193430992445186911e-01
5.139999999999999680e+00 6.162462572537934502e-01
5.160000000000000142e+00 6.131710212224826817e-01
5.179999999999999716e+00 6.101171824900051277e-01
5.200000000000000178e+00 6.070845305640053535e-01
5.219999999999999751e+00 6.040728622727021824e-01
5.240000000000000213e+00 6.010819728142200447e-01
5.259999999999999787e+00 5.981116643178421288e-01
5.280000000000000249e+00 5.951617374903986901e-01
5.299999999999999822e+00 5.922319995812359572e-01
5.320000000000000284e+00 5.893222566309591626e-01
5.339999999999999858e+00 5.864323208349890848e-01
5.360000000000000320e+00 5.835620033993411671e-01
5.379999999999999893e+00 5.807111212976892034e-01
5.400000000000000355e+00 5.778794907394020353e-01
5.419999999999999929e+00 5.750669333150794094e-01
5.440000000000000391e+00 5.722732700814319173e-01
5.459999999999999964e+00 5.694983270903197781e-01
5.480000000000000426e+00 5.667419300955975903e-01
5.500000000000000000e+00 5.640039094607315340e-01
5.520000000000000462e+00 5.612840954920944592e-01
5.540000000000000036e+00 5.585823227202940666e-01
5.560000000000000497e+00 5.558984258649585231e-01
5.580000000000000071e+00 5.532322434849401560e-01
5.600000000000000533e+00 5.505836145789967384e-01
5.620000000000000107e+00 5.479523816000846370e-01
5.639999999999999680e+00 5.453383876969127853e-01
5.660000000000000142e+00 5.427414790875623174e-01
5.679999999999999716e+00 5.401615029462494277e-01
5.700000000000000178e+00 5.375983091315608142e-01
5.719999999999999751e+00 5.350517487233410474e-01
5.740000000000000213e+00 5.325216751008461369e-01
5.759999999999999787e+00 5.300079431340434244e-01
5.780000000000000249e+00 5.275104096070173387e-01
5.799999999999999822e+00 5.250289330685563582e-01
5.820000000000000284e+00 5.225633735961804360e-01
5.839999999999999858e+00 5.201135933102344344e-01
5.860000000000000320e+00 5.176794554739260201e-01
5.879999999999999893e+00 5.152608256757839067e-01
5.900000000000000355e+00 5.128575702610890241e-01
5.919999999999999929e+00 5.104695581869025389e-01
5.940000000000000391e+00 5.080966587803068535e-01
5.959999999999999964e+00 5.057387442708346503e-01
5.980000000000000426e+00 5.033956868709352772e-01
6.000000000000000000e+00 5.010673619899959075e-01
6.020000000000000462e+00 4.987536446324601358e-01
6.040000000000000036e+00 4.964544132982635083e-01
6.060000000000000497e+00 4.941695456940395914e-01
6.080000000000000071e+00 4.918989233241541914e-01
6.100000000000000533e+00 4.896424265104248885e-01
6.120000000000000107e+00 4.873999396785877458e-01
6.140000000000000568e+00 4.851713456819656822e-01
6.160000000000000142e+00 4.829565317875505470e-01
6.179999999999999716e+00 4.807553832990438814e-01
6.200000000000000178e+00 4.785677902474169132e-01
6.219999999999999751e+00 4.763936403087196125e-01
6.240000000000000213e+00 4.742328262033435604e-01
6.259999999999999787e+00 4.720852379039987556e-01
6.280000000000000249e+00 4.699507707485610086e-01
6.299999999999999822e+00 4.678293169335989155e-01
6.320000000000000284e+00 4.657207743450584858e-01
6.339999999999999858e+00 4.636250373326923913e-01
6.360000000000000320e+00 4.615420062635274823e-01
6.379999999999999893e+00 4.594715775725324858e-01
6.400000000000000355e+00 4.574136540431645859e-01
6.419999999999999929e+00 4.553681341295719998e-01
6.440000000000000391e+00 4.533349229692333338e-01
6.459999999999999964e+00 4.513139209719786993e-01
6.480000000000000426e+00 4.493050355690685893e-01
6.500000000000000000e+00 4.473081690642673469e-01
6.520000000000000462e+00 4.453232311244582076e-01
6.540000000000000036e+00 4.433501258879692375e-01
6.560000000000000497e+00 4.413887652011546647e-01
6.580000000000000071e+00 4.394390549791274414e-01
6.600000000000000533e+00 4.375009091934978223e-01
6.620000000000000107e+00 4.355742354806154681e-01
6.640000000000000568e+00 4.336589498849879321e-01
6.660000000000000142e+00 4.317549617100904791e-01
6.679999999999999716e+00 4.298621890227630193e-01
6.700000000000000178e+00 4.279805427415981911e-01
6.719999999999999751e+00 4.261099429069333810e-01
6.740000000000000213e+00 4.242503020017679982e-01
6.759999999999999787e+00 4.224015419927629189e-01
6.780000000000000249e+00 4.205635768785865869e-01
6.799999999999999822e+00 4.187363305066633679e-01
6.820000000000000284e+00 4.169197183437571841e-01
6.839999999999999858e+00 4.151136660740447626e-01
6.860000000000000320e+00 4.133180905866756794e-01
6.879999999999999893e+00 4.115329193600508750e-01
6.900000000000000355e+00 4.097580706610545742e-01
6.919999999999999929e+00 4.079934737212299600e-01
6.940000000000000391e+00 4.062390481422901156e-01
6.959999999999999964e+00 4.044947248692236652e-01
6.980000000000000426e+00 4.027604247966126150e-01
7.000000000000000000e+00 4.010360805445392640e-01
7.020000000000000462e+00 3.993216142601491714e-01
7.040000000000000036e+00 3.976169602015563465e-01
7.060000000000000497e+00 3.959220417290054139e-01
7.080000000000000071e+00 3.942367947028260211e-01
7.100000000000000533e+00 3.925611436584671154e-01
7.120000000000000107e+00 3.908950260238682750e-01
7.140000000000000568e+00 3.892383674725258258e-01
7.160000000000000142e+00 3.875911069665448072e-01
7.179999999999999716e+00 3.859531712818061178e-01
7.200000000000000178e+00 3.843245008822586684e-01
7.219999999999999751e+00 3.827050236111507187e-01
7.240000000000000213e+00 3.810946814030430341e-01
7.259999999999999787e+00 3.794934031349571080e-01
7.280000000000000249e+00 3.779011321818762648e-01
7.299999999999999822e+00 3.763177984215587135e-01
7.320000000000000284e+00 3.747433466402383950e-01
7.339999999999999858e+00 3.731777076847363483e-01
7.360000000000000320e+00 3.716208277243457925e-01
7.379999999999999893e+00 3.700726385437473898e-01
7.400000000000000355e+00 3.685330876680515400e-01
7.419999999999999929e+00 3.670021077898938389e-01
7.440000000000000391e+00 3.654796477638741492e-01
7.459999999999999964e+00 3.639656411610841524e-01
7.480000000000000426e+00 3.624600381401723581e-01
7.500000000000000000e+00 3.609627731224283598e-01
7.520000000000000462e+00 3.594737975459627588e-01
7.540000000000000036e+00 3.579930466543447820e-01
7.560000000000000497e+00 3.565204731413982864e-01
7.580000000000000071e+00 3.550560130462276920e-01
7.600000000000000533e+00 3.535996202954170275e-01
7.620000000000000107e+00 3.521512316971474599e-01
7.640000000000000568e+00 3.507108023885979198e-01
7.660000000000000142e+00 3.492782699216986364e-01
7.679999999999999716e+00 3.478535906228047425e-01
7.700000000000000178e+00 3.464367027624778994e-01
7.719999999999999751e+00 3.450275638355670971e-01
7.740000000000000213e+00 3.436261128072466975e-01
7.759999999999999787e+00 3.422323083208853589e-01
7.780000000000000249e+00 3.408460900123999049e-01
7.799999999999999822e+00 3.394674176543878708e-01
7.820000000000000284e+00 3.380962315307020627e-01
7.839999999999999858e+00 3.367324925245460121e-01
7.860000000000000320e+00 3.353761415449897365e-01
7.879999999999999893e+00 3.340271405678704730e-01
