# Electrodo circular de radio 6 mm y espesor 710.0 um.
# Volumen de simulacion (convencion z,y,x):
# N: 1024 x 1024 x 1024 | voxelSize:  0.02mm x 0.02mm x 0.02mm | FOV:  20.48mm x 20.48mm x 20.48mm
# 
# z [mm]		 delta[ppm]
0.000000000000000000e+00 2.964467614045350086e+00
2.000000000000000042e-02 2.957481477057966490e+00
4.000000000000000083e-02 2.950306175914678697e+00
5.999999999999999778e-02 2.942944913897152848e+00
8.000000000000000167e-02 2.935400921497739901e+00
1.000000000000000056e-01 2.927677476998737927e+00
1.199999999999999956e-01 2.919777902680950277e+00
1.400000000000000133e-01 2.911705570964608469e+00
1.600000000000000033e-01 2.903463893953249109e+00
1.799999999999999933e-01 2.895056327396330786e+00
2.000000000000000111e-01 2.886486360232535464e+00
2.200000000000000011e-01 2.877757518779954449e+00
2.399999999999999911e-01 2.868873355695598981e+00
2.600000000000000089e-01 2.859837454742938601e+00
2.800000000000000266e-01 2.850653419294032265e+00
2.999999999999999889e-01 2.841324877619860523e+00
3.200000000000000067e-01 2.831855471018641879e+00
3.400000000000000244e-01 2.822248859609901572e+00
3.599999999999999867e-01 2.812508710122139099e+00
3.800000000000000044e-01 2.802638702183190667e+00
4.000000000000000222e-01 2.792642515817801208e+00
4.199999999999999845e-01 2.782523838232889180e+00
4.400000000000000022e-01 2.772286351038785401e+00
4.600000000000000200e-01 2.761933737532271671e+00
4.799999999999999822e-01 2.751469669676663177e+00
5.000000000000000000e-01 2.740897815884389299e+00
5.200000000000000178e-01 2.730221827765061615e+00
5.400000000000000355e-01 2.719445348410544749e+00
5.600000000000000533e-01 2.708571998937029601e+00
5.799999999999999600e-01 2.697605387273307453e+00
5.999999999999999778e-01 2.686549094503628776e+00
6.199999999999999956e-01 2.675406684159759685e+00
6.400000000000000133e-01 2.664181688384144042e+00
6.600000000000000311e-01 2.652877617723985448e+00
6.800000000000000488e-01 2.641497947119526568e+00
7.000000000000000666e-01 2.630046126197697287e+00
7.199999999999999734e-01 2.618525565100001007e+00
7.399999999999999911e-01 2.606939645271134420e+00
7.600000000000000089e-01 2.595291705129379789e+00
7.800000000000000266e-01 2.583585051344736705e+00
8.000000000000000444e-01 2.571822944362249341e+00
8.200000000000000622e-01 2.560008610162244125e+00
8.399999999999999689e-01 2.548145225637830080e+00
8.599999999999999867e-01 2.536235930828985907e+00
8.800000000000000044e-01 2.524283814161381478e+00
9.000000000000000222e-01 2.512291925144461313e+00
9.200000000000000400e-01 2.500263259471378952e+00
9.400000000000000577e-01 2.488200772170384933e+00
9.599999999999999645e-01 2.476107362570543646e+00
9.799999999999999822e-01 2.463985887894476701e+00
1.000000000000000000e+00 2.451839148088537090e+00
1.020000000000000018e+00 2.439669899844291390e+00
1.040000000000000036e+00 2.427480841295944547e+00
1.060000000000000053e+00 2.415274626457001528e+00
1.080000000000000071e+00 2.403053849782859075e+00
1.100000000000000089e+00 2.390821061008586934e+00
1.120000000000000107e+00 2.378578749578238671e+00
1.140000000000000124e+00 2.366329359868970528e+00
1.159999999999999920e+00 2.354075275484655005e+00
1.179999999999999938e+00 2.341818834851302711e+00
1.199999999999999956e+00 2.329562315375773185e+00
1.219999999999999973e+00 2.317307949396973932e+00
1.239999999999999991e+00 2.305057908207261530e+00
1.260000000000000009e+00 2.292814318343818769e+00
1.280000000000000027e+00 2.280579245473235428e+00
1.300000000000000044e+00 2.268354711007185109e+00
1.320000000000000062e+00 2.256142675848117563e+00
1.340000000000000080e+00 2.243945057313403435e+00
1.360000000000000098e+00 2.231763712742715899e+00
1.380000000000000115e+00 2.219600456714747150e+00
1.400000000000000133e+00 2.207457044514779643e+00
1.419999999999999929e+00 2.195335189628229156e+00
1.439999999999999947e+00 2.183236547069359990e+00
1.459999999999999964e+00 2.171162731135996893e+00
1.479999999999999982e+00 2.159115298598651478e+00
1.500000000000000000e+00 2.147095766700983788e+00
1.520000000000000018e+00 2.135105596210899126e+00
1.540000000000000036e+00 2.123146209651500804e+00
1.560000000000000053e+00 2.111218974214355892e+00
1.580000000000000071e+00 2.099325220205999987e+00
1.600000000000000089e+00 2.087466223825676259e+00
1.620000000000000107e+00 2.075643225812707104e+00
1.640000000000000124e+00 2.063857414089869557e+00
1.660000000000000142e+00 2.052109942597315495e+00
1.679999999999999938e+00 2.040401913804701817e+00
1.699999999999999956e+00 2.028734397717619320e+00
1.719999999999999973e+00 2.017108414260677218e+00
1.739999999999999991e+00 2.005524952442757414e+00
1.760000000000000009e+00 1.993984952615053929e+00
1.780000000000000027e+00 1.982489325781779499e+00
1.800000000000000044e+00 1.971038935736364017e+00
1.820000000000000062e+00 1.959634618504615844e+00
1.840000000000000080e+00 1.948277164363954261e+00
1.860000000000000098e+00 1.936967337406299894e+00
1.880000000000000115e+00 1.925705857444535152e+00
1.900000000000000133e+00 1.914493419682779862e+00
1.919999999999999929e+00 1.903330676515757602e+00
1.939999999999999947e+00 1.892218257294423278e+00
1.959999999999999964e+00 1.881156750023305513e+00
1.979999999999999982e+00 1.870146721209757557e+00
2.000000000000000000e+00 1.859188697465742113e+00
2.020000000000000018e+00 1.848283185429260289e+00
2.040000000000000036e+00 1.837430653276469483e+00
2.060000000000000053e+00 1.826631550704145068e+00
2.080000000000000071e+00 1.815886290359277844e+00
2.100000000000000089e+00 1.805195267871654741e+00
2.120000000000000107e+00 1.794558843207594068e+00
2.140000000000000124e+00 1.783977360741983542e+00
2.160000000000000142e+00 1.773451130543909349e+00
2.180000000000000160e+00 1.762980448477727613e+00
2.200000000000000178e+00 1.752565577427869892e+00
2.220000000000000195e+00 1.742206767418736701e+00
2.240000000000000213e+00 1.731904236786973472e+00
2.260000000000000231e+00 1.721658192310167035e+00
2.280000000000000249e+00 1.711468810334398905e+00
2.300000000000000266e+00 1.701336256901942789e+00
2.319999999999999840e+00 1.691260668842817561e+00
2.339999999999999858e+00 1.681242173891800862e+00
2.359999999999999876e+00 1.671280871752278463e+00
2.379999999999999893e+00 1.661376854193062913e+00
2.399999999999999911e+00 1.651530186093628005e+00
2.419999999999999929e+00 1.641740925511344207e+00
2.439999999999999947e+00 1.632009104716759085e+00
2.459999999999999964e+00 1.622334750222000688e+00
2.479999999999999982e+00 1.612717863815486652e+00
2.500000000000000000e+00 1.603158442542334194e+00
2.520000000000000018e+00 1.593656459747462506e+00
2.540000000000000036e+00 1.584211884998967035e+00
2.560000000000000053e+00 1.574824665149218816e+00
2.580000000000000071e+00 1.565494744192232890e+00
2.600000000000000089e+00 1.556222044351945888e+00
2.620000000000000107e+00 1.547006485864722558e+00
2.640000000000000124e+00 1.537847968104559815e+00
2.660000000000000142e+00 1.528746389281910645e+00
2.680000000000000160e+00 1.519701627615188011e+00
2.700000000000000178e+00 1.510713560937149147e+00
2.720000000000000195e+00 1.501782047922567642e+00
2.740000000000000213e+00 1.492906947593473754e+00
2.760000000000000231e+00 1.484088100612488859e+00
2.780000000000000249e+00 1.475325348678256265e+00
2.800000000000000266e+00 1.466618515894379193e+00
2.819999999999999840e+00 1.457967428046423652e+00
2.839999999999999858e+00 1.449371894056018073e+00
2.859999999999999876e+00 1.440831725130846452e+00
2.879999999999999893e+00 1.432346716313875223e+00
2.899999999999999911e+00 1.423916665497788392e+00
2.919999999999999929e+00 1.415541355078938190e+00
2.939999999999999947e+00 1.407220570827679484e+00
2.959999999999999964e+00 1.398954083657020453e+00
2.979999999999999982e+00 1.390741668340355952e+00
3.000000000000000000e+00 1.382583085404407663e+00
3.020000000000000018e+00 1.374478099685885413e+00
3.040000000000000036e+00 1.366426462358641514e+00
3.060000000000000053e+00 1.358427929320781713e+00
3.080000000000000071e+00 1.350482243365644930e+00
3.100000000000000089e+00 1.342589152390881502e+00
3.120000000000000107e+00 1.334748391723153071e+00
3.140000000000000124e+00 1.326959702140749542e+00
3.160000000000000142e+00 1.319222812361534380e+00
3.180000000000000160e+00 1.311537456870677243e+00
3.200000000000000178e+00 1.303903358581665506e+00
3.220000000000000195e+00 1.296320246460741288e+00
3.240000000000000213e+00 1.288787838370454519e+00
3.260000000000000231e+00 1.281305858482388205e+00
3.280000000000000249e+00 1.273874020313017885e+00
3.300000000000000266e+00 1.266492043916322086e+00
3.320000000000000284e+00 1.259159639121338214e+00
3.339999999999999858e+00 1.251876522496296884e+00
3.359999999999999876e+00 1.244642400797526527e+00
3.379999999999999893e+00 1.237456987696719191e+00
3.399999999999999911e+00 1.230319987450526842e+00
3.419999999999999929e+00 1.223231111382584224e+00
3.439999999999999947e+00 1.216190061783364751e+00
3.459999999999999964e+00 1.209196548138601557e+00
3.479999999999999982e+00 1.202250271268635151e+00
3.500000000000000000e+00 1.195350939294904435e+00
3.520000000000000018e+00 1.188498252028227897e+00
3.540000000000000036e+00 1.181691916665043474e+00
3.560000000000000053e+00 1.174931632433771744e+00
3.580000000000000071e+00 1.168217106012465534e+00
3.600000000000000089e+00 1.161548036442624054e+00
3.620000000000000107e+00 1.154924130259949777e+00
3.640000000000000124e+00 1.148345086684647187e+00
3.660000000000000142e+00 1.141810612457011764e+00
3.680000000000000160e+00 1.135320407313441748e+00
3.700000000000000178e+00 1.128874178518577853e+00
3.720000000000000195e+00 1.122471626635998199e+00
3.740000000000000213e+00 1.116112459748641816e+00
3.760000000000000231e+00 1.109796379533305233e+00
3.780000000000000249e+00 1.103523095161115020e+00
3.800000000000000266e+00 1.097292309684678058e+00
3.820000000000000284e+00 1.091103733610367055e+00
3.839999999999999858e+00 1.084957071607157042e+00
3.859999999999999876e+00 1.078852035742519089e+00
3.879999999999999893e+00 1.072788332521668719e+00
3.899999999999999911e+00 1.066765675778896583e+00
3.919999999999999929e+00 1.060783774056141215e+00
3.939999999999999947e+00 1.054842343141584982e+00
3.959999999999999964e+00 1.048941093796201374e+00
3.979999999999999982e+00 1.043079743931443648e+00
4.000000000000000000e+00 1.037258006692612033e+00
4.020000000000000462e+00 1.031475602267500014e+00
4.040000000000000036e+00 1.025732246335089526e+00
4.060000000000000497e+00 1.020027661497082017e+00
4.080000000000000071e+00 1.014361566100627998e+00
4.099999999999999645e+00 1.008733685284655346e+00
4.120000000000000107e+00 1.003143740185071353e+00
4.139999999999999680e+00 9.975914585878076224e-01
4.160000000000000142e+00 9.920765645251491405e-01
4.179999999999999716e+00 9.865987885274345448e-01
4.200000000000000178e+00 9.811578576188391132e-01
4.219999999999999751e+00 9.757535051597402420e-01
4.240000000000000213e+00 9.703854612504603239e-01
4.259999999999999787e+00 9.650534621563048310e-01
4.280000000000000249e+00 9.597572411275250293e-01
4.299999999999999822e+00 9.544965373990325075e-01
4.320000000000000284e+00 9.492710874350342998e-01
4.339999999999999858e+00 9.440806334954673362e-01
4.360000000000000320e+00 9.389249153134674453e-01
4.379999999999999893e+00 9.338036782206089459e-01
4.400000000000000355e+00 9.287166652655316490e-01
4.419999999999999929e+00 9.236636248900806923e-01
4.440000000000000391e+00 9.186443034971887300e-01
4.459999999999999964e+00 9.136584526700235465e-01
4.480000000000000426e+00 9.087058221974003702e-01
4.500000000000000000e+00 9.037861668280493532e-01
4.520000000000000462e+00 8.988992397615741536e-01
4.540000000000000036e+00 8.940447989300158715e-01
4.560000000000000497e+00 8.892226009625274763e-01
4.580000000000000071e+00 8.844324069864051285e-01
4.600000000000000533e+00 8.796739770734256503e-01
4.620000000000000107e+00 8.749470755525396992e-01
4.639999999999999680e+00 8.702514659459958946e-01
4.660000000000000142e+00 8.655869157859041874e-01
4.679999999999999716e+00 8.609531920480120171e-01
4.700000000000000178e+00 8.563500654643833032e-01
4.719999999999999751e+00 8.517773064628804125e-01
4.740000000000000213e+00 8.472346889681976467e-01
4.759999999999999787e+00 8.427219868548742054e-01
4.780000000000000249e+00 8.382389772289418062e-01
4.799999999999999822e+00 8.337854374024606940e-01
4.820000000000000284e+00 8.293611476480868827e-01
4.839999999999999858e+00 8.249658887028679111e-01
4.860000000000000320e+00 8.205994439880289759e-01
4.879999999999999893e+00 8.162615976499834058e-01
4.900000000000000355e+00 8.119521362376469487e-01
4.919999999999999929e+00 8.076708472883719070e-01
4.940000000000000391e+00 8.034175204551137206e-01
4.959999999999999964e+00 7.991919466451954390e-01
4.980000000000000426e+00 7.949939185896496285e-01
5.000000000000000000e+00 7.908232305424947040e-01
5.020000000000000462e+00 7.866796782846098290e-01
5.040000000000000036e+00 7.825630593913591726e-01
5.060000000000000497e+00 7.784731726633720150e-01
5.080000000000000071e+00 7.744098189701575929e-01
5.100000000000000533e+00 7.703728001001374226e-01
5.120000000000000107e+00 7.663619201880935705e-01
5.139999999999999680e+00 7.623769839768231860e-01
5.160000000000000142e+00 7.584177988360287781e-01
5.179999999999999716e+00 7.544841724279721662e-01
5.200000000000000178e+00 7.505759153256130745e-01
5.219999999999999751e+00 7.466928380746384875e-01
5.240000000000000213e+00 7.428347544184547013e-01
5.259999999999999787e+00 7.390014777489577469e-01
5.280000000000000249e+00 7.351928249461722187e-01
5.299999999999999822e+00 7.314086122101558507e-01
5.320000000000000284e+00 7.276486595228581766e-01
5.339999999999999858e+00 7.239127858535430171e-01
5.360000000000000320e+00 7.202008142506483024e-01
5.379999999999999893e+00 7.165125664130956862e-01
5.400000000000000355e+00 7.128478684197494530e-01
5.419999999999999929e+00 7.092065446589693734e-01
5.440000000000000391e+00 7.055884242034621279e-01
5.459999999999999964e+00 7.019933340904291885e-01
5.480000000000000426e+00 6.984211063494150107e-01
5.500000000000000000e+00 6.948715706253967284e-01
5.520000000000000462e+00 6.913445618674192161e-01
5.540000000000000036e+00 6.878399122869693905e-01
5.560000000000000497e+00 6.843574597150144934e-01
5.580000000000000071e+00 6.808970388879819202e-01
5.600000000000000533e+00 6.774584904810139196e-01
5.620000000000000107e+00 6.740416517138624330e-01
5.639999999999999680e+00 6.706463660680075378e-01
5.660000000000000142e+00 6.672724732047478069e-01
5.679999999999999716e+00 6.639198193740283305e-01
5.700000000000000178e+00 6.605882466369986661e-01
5.719999999999999751e+00 6.572776039742340703e-01
5.740000000000000213e+00 6.539877358049972500e-01
5.759999999999999787e+00 6.507184938027390508e-01
5.780000000000000249e+00 6.474697247032848990e-01
5.799999999999999822e+00 6.442412828353474286e-01
5.820000000000000284e+00 6.410330172098291923e-01
5.839999999999999858e+00 6.378447847732638953e-01
5.860000000000000320e+00 6.346764367704139653e-01
5.879999999999999893e+00 6.315278327284320481e-01
5.900000000000000355e+00 6.283988260848651919e-01
5.919999999999999929e+00 6.252892789105344296e-01
5.940000000000000391e+00 6.221990467950481163e-01
5.959999999999999964e+00 6.191279943162468768e-01
5.980000000000000426e+00 6.160759791752785652e-01
6.000000000000000000e+00 6.130428684206815637e-01
6.020000000000000462e+00 6.100285218250370844e-01
6.040000000000000036e+00 6.070328088716128168e-01
6.060000000000000497e+00 6.040555913645692110e-01
6.080000000000000071e+00 6.010967411863197274e-01
6.100000000000000533e+00 5.981561221332148959e-01
6.120000000000000107e+00 5.952336084516274273e-01
6.140000000000000568e+00 5.923290658910068673e-01
6.160000000000000142e+00 5.894423710269252048e-01
6.179999999999999716e+00 5.865733915233337648e-01
6.200000000000000178e+00 5.837220062506901508e-01
6.219999999999999751e+00 5.808880847491780797e-01
6.240000000000000213e+00 5.780715081502763031e-01
6.259999999999999787e+00 5.752721478326700000e-01
6.280000000000000249e+00 5.724898871554656710e-01
6.299999999999999822e+00 5.697245992984618645e-01
6.320000000000000284e+00 5.669761698154860419e-01
6.339999999999999858e+00 5.642444736506163627e-01
6.360000000000000320e+00 5.615293985199807381e-01
6.379999999999999893e+00 5.588308210954722188e-01
6.400000000000000355e+00 5.561486312236040286e-01
6.419999999999999929e+00 5.534827072681837157e-01
6.440000000000000391e+00 5.508329411746984983e-01
6.459999999999999964e+00 5.481992129633512789e-01
6.480000000000000426e+00 5.455814166477118698e-01
6.500000000000000000e+00 5.429794338694311495e-01
6.520000000000000462e+00 5.403931606797836018e-01
6.540000000000000036e+00 5.378224803073073934e-01
6.560000000000000497e+00 5.352672908111277827e-01
6.580000000000000071e+00 5.327274769726902948e-01
6.600000000000000533e+00 5.302029388296443102e-01
6.620000000000000107e+00 5.276935626827485848e-01
6.640000000000000568e+00 5.251992505193742167e-01
6.660000000000000142e+00 5.227198901265762698e-01
6.679999999999999716e+00 5.202553854131718447e-01
6.700000000000000178e+00 5.178056256198871887e-01
6.719999999999999751e+00 5.153705165492373785e-01
6.740000000000000213e+00 5.129499488635690385e-01
6.759999999999999787e+00 5.105438302318737742e-01
6.780000000000000249e+00 5.081520527064454784e-01
6.799999999999999822e+00 5.057745257960599705e-01
6.820000000000000284e+00 5.034111429118562908e-01
6.839999999999999858e+00 5.010618153762275151e-01
6.860000000000000320e+00 4.987264379284261917e-01
6.879999999999999893e+00 4.964049236788097841e-01
6.900000000000000355e+00 4.940971686645899141e-01
6.919999999999999929e+00 4.918030877589570360e-01
6.940000000000000391e+00 4.895225782672767978e-01
6.959999999999999964e+00 4.872555568009540594e-01
6.980000000000000426e+00 4.850019219042666641e-01
7.000000000000000000e+00 4.827615919027355984e-01
7.020000000000000462e+00 4.805344665506502411e-01
7.040000000000000036e+00 4.783204658640494156e-01
7.060000000000000497e+00 4.761194907788895980e-01
7.080000000000000071e+00 4.739314629786333111e-01
7.100000000000000533e+00 4.717562845528881499e-01
7.120000000000000107e+00 4.695938788299481303e-01
7.140000000000000568e+00 4.674441490255952791e-01
7.160000000000000142e+00 4.653070200908561715e-01
7.179999999999999716e+00 4.631823963405283795e-01
7.200000000000000178e+00 4.610702043267591033e-01
7.219999999999999751e+00 4.589703494367274872e-01
7.240000000000000213e+00 4.568827598025802517e-01
7.259999999999999787e+00 4.548073418575478977e-01
7.280000000000000249e+00 4.527440252931258513e-01
7.299999999999999822e+00 4.506927175627756799e-01
7.320000000000000284e+00 4.486533498971686518e-01
7.339999999999999858e+00 4.466258307444722075e-01
7.360000000000000320e+00 4.446100928548287201e-01
7.379999999999999893e+00 4.426060456460748638e-01
7.400000000000000355e+00 4.406136233685833403e-01
7.419999999999999929e+00 4.386327363850971994e-01
7.440000000000000391e+00 4.366633204274343316e-01
7.459999999999999964e+00 4.347052867789660824e-01
7.480000000000000426e+00 4.327585726346226958e-01
7.500000000000000000e+00 4.308230901743818619e-01
7.520000000000000462e+00 4.288987780383919368e-01
7.540000000000000036e+00 4.269855492796914564e-01
7.560000000000000497e+00 4.250833439662027313e-01
7.580000000000000071e+00 4.231920760006990245e-01
7.600000000000000533e+00 4.213116868618580479e-01
7.620000000000000107e+00 4.194420912793374034e-01
7.640000000000000568e+00 4.175832321259885238e-01
7.660000000000000142e+00 4.157350249357102401e-01
7.679999999999999716e+00 4.138974139593617485e-01
7.700000000000000178e+00 4.120703155128856432e-01
7.719999999999999751e+00 4.102536752094064210e-01
7.740000000000000213e+00 4.084474101249149225e-01
7.759999999999999787e+00 4.066514672194678215e-01
7.780000000000000249e+00 4.048657643075381229e-01
7.799999999999999822e+00 4.030902496811865632e-01
7.820000000000000284e+00 4.013248418719886357e-01
7.839999999999999858e+00 3.995694904894819266e-01
7.860000000000000320e+00 3.978241147613762463e-01
7.879999999999999893e+00 3.960886656005584427e-01
