# Electrodo circular de radio 6 mm y espesor 710.0 um.
# Volumen de simulacion (convencion z,y,x):
# N: 1024 x 1024 x 1024 | voxelSize:  0.02mm x 0.02mm x 0.02mm | FOV:  20.48mm x 20.48mm x 20.48mm
# 
# z [mm]		 delta[ppm]
0.000000000000000000e+00 2.415468678553015724e+00
2.000000000000000042e-02 2.412816701365918970e+00
4.000000000000000083e-02 2.410084433657805558e+00
5.999999999999999778e-02 2.407272404955229206e+00
8.000000000000000167e-02 2.404381120650620041e+00
1.000000000000000056e-01 2.401411092564838423e+00
1.199999999999999956e-01 2.398362846607733356e+00
1.400000000000000133e-01 2.395236921987859091e+00
1.600000000000000033e-01 2.392033868620913051e+00
1.799999999999999933e-01 2.388754250087292696e+00
2.000000000000000111e-01 2.385398639495079909e+00
2.200000000000000011e-01 2.381967623321243455e+00
2.399999999999999911e-01 2.378461796949877805e+00
2.600000000000000089e-01 2.374881768786961445e+00
2.800000000000000266e-01 2.371228155537770999e+00
2.999999999999999889e-01 2.367501586552951842e+00
3.200000000000000067e-01 2.363702698876737340e+00
3.400000000000000244e-01 2.359832141802502115e+00
3.599999999999999867e-01 2.355890571708845638e+00
3.800000000000000044e-01 2.351878656816914326e+00
4.000000000000000222e-01 2.347797071816295933e+00
4.199999999999999845e-01 2.343646502817946953e+00
4.400000000000000022e-01 2.339427641783399903e+00
4.600000000000000200e-01 2.335141191668419491e+00
4.799999999999999822e-01 2.330787860654731869e+00
5.000000000000000000e-01 2.326368367480738719e+00
5.200000000000000178e-01 2.321883435486688185e+00
5.400000000000000355e-01 2.317333798128565103e+00
5.600000000000000533e-01 2.312720192836346111e+00
5.799999999999999600e-01 2.308043366707990263e+00
5.999999999999999778e-01 2.303304070189972741e+00
6.199999999999999956e-01 2.298503062947836906e+00
6.400000000000000133e-01 2.293641107369559062e+00
6.600000000000000311e-01 2.288718974609592394e+00
6.800000000000000488e-01 2.283737437923202052e+00
7.000000000000000666e-01 2.278697278880498001e+00
7.199999999999999734e-01 2.273599280533122435e+00
7.399999999999999911e-01 2.268444233795101184e+00
7.600000000000000089e-01 2.263232930449273983e+00
7.800000000000000266e-01 2.257966169691383307e+00
8.000000000000000444e-01 2.252644750978362698e+00
8.200000000000000622e-01 2.247269480732262181e+00
8.399999999999999689e-01 2.241841165037326888e+00
8.599999999999999867e-01 2.236360616500020715e+00
8.800000000000000044e-01 2.230828646797605508e+00
9.000000000000000222e-01 2.225246073690610782e+00
9.200000000000000400e-01 2.219613713429540613e+00
9.400000000000000577e-01 2.213932387915879207e+00
9.599999999999999645e-01 2.208202916970080310e+00
9.799999999999999822e-01 2.202426125637234833e+00
1.000000000000000000e+00 2.196602836322774088e+00
1.020000000000000018e+00 2.190733876238653455e+00
1.040000000000000036e+00 2.184820069410341681e+00
1.060000000000000053e+00 2.178862244259400782e+00
1.080000000000000071e+00 2.172861225488048387e+00
1.100000000000000089e+00 2.166817841793764909e+00
1.120000000000000107e+00 2.160732917635364014e+00
1.140000000000000124e+00 2.154607281075236802e+00
1.159999999999999920e+00 2.148441755433139644e+00
1.179999999999999938e+00 2.142237167251492824e+00
1.199999999999999956e+00 2.135994337841102375e+00
1.219999999999999973e+00 2.129714091364885320e+00
1.239999999999999991e+00 2.123397246281685025e+00
1.260000000000000009e+00 2.117044623543618886e+00
1.280000000000000027e+00 2.110657037942460068e+00
1.300000000000000044e+00 2.104235306415732421e+00
1.320000000000000062e+00 2.097780239301818561e+00
1.340000000000000080e+00 2.091292648749762062e+00
1.360000000000000098e+00 2.084773339887804777e+00
1.380000000000000115e+00 2.078223119331790603e+00
1.400000000000000133e+00 2.071642786273299119e+00
1.419999999999999929e+00 2.065033141081387580e+00
1.439999999999999947e+00 2.058394976315227609e+00
1.459999999999999964e+00 2.051729085413858122e+00
1.479999999999999982e+00 2.045036253639516133e+00
1.500000000000000000e+00 2.038317266849925424e+00
1.520000000000000018e+00 2.031572902377420942e+00
1.540000000000000036e+00 2.024803937878207005e+00
1.560000000000000053e+00 2.018011142153517401e+00
1.580000000000000071e+00 2.011195284070173450e+00
1.600000000000000089e+00 2.004357123329031598e+00
1.620000000000000107e+00 1.997497419451082168e+00
1.640000000000000124e+00 1.990616922499475638e+00
1.660000000000000142e+00 1.983716382125279010e+00
1.679999999999999938e+00 1.976796538248501101e+00
1.699999999999999956e+00 1.969858130157561948e+00
1.719999999999999973e+00 1.962901887155654279e+00
1.739999999999999991e+00 1.955928537707848802e+00
1.760000000000000009e+00 1.948938800058385157e+00
1.780000000000000027e+00 1.941933391419256694e+00
1.800000000000000044e+00 1.934913018564841769e+00
1.820000000000000062e+00 1.927878387055714349e+00
1.840000000000000080e+00 1.920830191816357058e+00
1.860000000000000098e+00 1.913769126387859787e+00
1.880000000000000115e+00 1.906695873495191762e+00
1.900000000000000133e+00 1.899611114322380390e+00
1.919999999999999929e+00 1.892515519075188557e+00
1.939999999999999947e+00 1.885409756272302007e+00
1.959999999999999964e+00 1.878294483309973062e+00
1.979999999999999982e+00 1.871170355762598492e+00
2.000000000000000000e+00 1.864038017955355064e+00
2.020000000000000018e+00 1.856898112267539203e+00
2.040000000000000036e+00 1.849751269719796642e+00
2.060000000000000053e+00 1.842598119273497925e+00
2.080000000000000071e+00 1.835439278438702360e+00
2.100000000000000089e+00 1.828275362562771900e+00
2.120000000000000107e+00 1.821106975465790256e+00
2.140000000000000124e+00 1.813934718711528671e+00
2.160000000000000142e+00 1.806759182276591602e+00
2.180000000000000160e+00 1.799580953796797056e+00
2.200000000000000178e+00 1.792400609276848966e+00
2.220000000000000195e+00 1.785218722305128569e+00
2.240000000000000213e+00 1.778035854810276817e+00
2.260000000000000231e+00 1.770852566237344661e+00
2.280000000000000249e+00 1.763669404358157333e+00
2.300000000000000266e+00 1.756486914401691912e+00
2.319999999999999840e+00 1.749305629924749583e+00
2.339999999999999858e+00 1.742126081889372680e+00
2.359999999999999876e+00 1.734948789600787133e+00
2.379999999999999893e+00 1.727774269724629663e+00
2.399999999999999911e+00 1.720603027298777121e+00
2.419999999999999929e+00 1.713435564683091661e+00
2.439999999999999947e+00 1.706272372652209102e+00
2.459999999999999964e+00 1.699113939270436413e+00
2.479999999999999982e+00 1.691960741072245256e+00
2.500000000000000000e+00 1.684813251854942573e+00
2.520000000000000018e+00 1.677671933953991168e+00
2.540000000000000036e+00 1.670537246946021792e+00
2.560000000000000053e+00 1.663409639025836828e+00
2.580000000000000071e+00 1.656289555612261211e+00
2.600000000000000089e+00 1.649177430834065650e+00
2.620000000000000107e+00 1.642073696031124630e+00
2.640000000000000124e+00 1.634978771356216720e+00
2.660000000000000142e+00 1.627893074163912157e+00
2.680000000000000160e+00 1.620817010735571051e+00
2.700000000000000178e+00 1.613750984548339762e+00
2.720000000000000195e+00 1.606695388130398694e+00
2.740000000000000213e+00 1.599650611202418915e+00
2.760000000000000231e+00 1.592617032670471833e+00
2.780000000000000249e+00 1.585595028632235781e+00
2.800000000000000266e+00 1.578584964514722966e+00
2.819999999999999840e+00 1.571587202937526850e+00
2.839999999999999858e+00 1.564602096002831511e+00
2.859999999999999876e+00 1.557629993007934477e+00
2.879999999999999893e+00 1.550671232894805573e+00
2.899999999999999911e+00 1.543726151804073687e+00
2.919999999999999929e+00 1.536795075691719026e+00
2.939999999999999947e+00 1.529878327716656550e+00
2.959999999999999964e+00 1.522976221031928201e+00
2.979999999999999982e+00 1.516089065998036833e+00
3.000000000000000000e+00 1.509217163156259200e+00
3.020000000000000018e+00 1.502360810259837143e+00
3.040000000000000036e+00 1.495520295436854719e+00
3.060000000000000053e+00 1.488695904031357653e+00
3.080000000000000071e+00 1.481887911963528204e+00
3.100000000000000089e+00 1.475096592372757920e+00
3.120000000000000107e+00 1.468322209182652216e+00
3.140000000000000124e+00 1.461565023538085484e+00
3.160000000000000142e+00 1.454825287582832916e+00
3.180000000000000160e+00 1.448103250682567955e+00
3.200000000000000178e+00 1.441399153422753709e+00
3.220000000000000195e+00 1.434713233609571370e+00
3.240000000000000213e+00 1.428045720495891846e+00
3.260000000000000231e+00 1.421396840552076934e+00
3.280000000000000249e+00 1.414766811927764767e+00
3.300000000000000266e+00 1.408155849984429997e+00
3.320000000000000284e+00 1.401564162000915603e+00
3.339999999999999858e+00 1.394991952459635698e+00
3.359999999999999876e+00 1.388439418003642123e+00
3.379999999999999893e+00 1.381906752468328170e+00
3.399999999999999911e+00 1.375394142098040895e+00
3.419999999999999929e+00 1.368901770315100741e+00
3.439999999999999947e+00 1.362429813203815288e+00
3.459999999999999964e+00 1.355978444008668626e+00
3.479999999999999982e+00 1.349547828893774115e+00
3.500000000000000000e+00 1.343138131161998094e+00
3.520000000000000018e+00 1.336749507297821271e+00
3.540000000000000036e+00 1.330382110899178238e+00
3.560000000000000053e+00 1.324036089011823680e+00
3.580000000000000071e+00 1.317711585765612314e+00
3.600000000000000089e+00 1.311408739008425695e+00
3.620000000000000107e+00 1.305127683638614311e+00
3.640000000000000124e+00 1.298868548546631363e+00
3.660000000000000142e+00 1.292631459635360303e+00
3.680000000000000160e+00 1.286416537077550659e+00
3.700000000000000178e+00 1.280223898015680373e+00
3.720000000000000195e+00 1.274053654143459724e+00
3.740000000000000213e+00 1.267905914076886686e+00
3.760000000000000231e+00 1.261780781267948237e+00
3.780000000000000249e+00 1.255678356038531840e+00
3.800000000000000266e+00 1.249598733834608399e+00
3.820000000000000284e+00 1.243542006914606146e+00
3.839999999999999858e+00 1.237508262952321969e+00
3.859999999999999876e+00 1.231497586371334219e+00
3.879999999999999893e+00 1.225510057304994405e+00
3.899999999999999911e+00 1.219545752568450769e+00
3.919999999999999929e+00 1.213604744984016381e+00
3.939999999999999947e+00 1.207687103982348908e+00
3.959999999999999964e+00 1.201792895301601716e+00
3.979999999999999982e+00 1.195922181209287949e+00
4.000000000000000000e+00 1.190075020583581500e+00
4.020000000000000462e+00 1.184251468747349545e+00
4.040000000000000036e+00 1.178451577940072159e+00
4.060000000000000497e+00 1.172675396755545663e+00
4.080000000000000071e+00 1.166922971012816390e+00
4.099999999999999645e+00 1.161194342789034772e+00
4.120000000000000107e+00 1.155489551697908013e+00
4.139999999999999680e+00 1.149808633509134870e+00
4.160000000000000142e+00 1.144151621842891764e+00
4.179999999999999716e+00 1.138518546367238926e+00
4.200000000000000178e+00 1.132909434917207525e+00
4.219999999999999751e+00 1.127324311261590495e+00
4.240000000000000213e+00 1.121763197655171185e+00
4.259999999999999787e+00 1.116226112166257778e+00
4.280000000000000249e+00 1.110713071670676122e+00
4.299999999999999822e+00 1.105224088731411314e+00
4.320000000000000284e+00 1.099759175042975823e+00
4.339999999999999858e+00 1.094318337854442325e+00
4.360000000000000320e+00 1.088901583872916801e+00
4.379999999999999893e+00 1.083508915221248481e+00
4.400000000000000355e+00 1.078140333809245233e+00
4.419999999999999929e+00 1.072795836817367121e+00
4.440000000000000391e+00 1.067475421544406888e+00
4.459999999999999964e+00 1.062179080408422793e+00
4.480000000000000426e+00 1.056906806279638511e+00
4.500000000000000000e+00 1.051658586989770994e+00
4.520000000000000462e+00 1.046434411158994493e+00
4.540000000000000036e+00 1.041234262204888239e+00
4.560000000000000497e+00 1.036058124672202929e+00
4.580000000000000071e+00 1.030905977732596845e+00
4.600000000000000533e+00 1.025777802026101693e+00
4.620000000000000107e+00 1.020673572642764260e+00
4.639999999999999680e+00 1.015593266484679402e+00
4.660000000000000142e+00 1.010536854720633038e+00
4.679999999999999716e+00 1.005504310677636237e+00
4.700000000000000178e+00 1.000495601759650022e+00
4.719999999999999751e+00 9.955106978775526416e-01
4.740000000000000213e+00 9.905495628229682437e-01
4.759999999999999787e+00 9.856121632456839032e-01
4.780000000000000249e+00 9.806984594735955740e-01
4.799999999999999822e+00 9.758084150465707873e-01
4.820000000000000284e+00 9.709419869734783326e-01
4.839999999999999858e+00 9.660991358315750288e-01
4.860000000000000320e+00 9.612798154515791449e-01
4.879999999999999893e+00 9.564839835916245647e-01
4.900000000000000355e+00 9.517115910412943247e-01
4.919999999999999929e+00 9.469625928793035108e-01
4.940000000000000391e+00 9.422369369873541123e-01
4.959999999999999964e+00 9.375345759006893376e-01
4.980000000000000426e+00 9.328554547226073357e-01
5.000000000000000000e+00 9.281995235771152153e-01
5.020000000000000462e+00 9.235667249149046576e-01
5.040000000000000036e+00 9.189570065773183805e-01
5.060000000000000497e+00 9.143703084845468121e-01
5.080000000000000071e+00 9.098065763202158873e-01
5.100000000000000533e+00 9.052657475925351971e-01
5.120000000000000107e+00 9.007477659487984623e-01
5.139999999999999680e+00 8.962525666001558422e-01
5.160000000000000142e+00 8.917800912754332288e-01
5.179999999999999716e+00 8.873302730001657590e-01
5.200000000000000178e+00 8.829030516991140942e-01
5.219999999999999751e+00 8.784983583201573243e-01
5.240000000000000213e+00 8.741161310949885355e-01
5.259999999999999787e+00 8.697562989984143345e-01
5.280000000000000249e+00 8.654187986767022389e-01
5.299999999999999822e+00 8.611035572328128440e-01
5.320000000000000284e+00 8.568105098319444002e-01
5.339999999999999858e+00 8.525395818031707984e-01
5.360000000000000320e+00 8.482907069317606741e-01
5.379999999999999893e+00 8.440638088676083450e-01
5.400000000000000355e+00 8.398588201140151366e-01
5.419999999999999929e+00 8.356756627332789789e-01
5.440000000000000391e+00 8.315142680415947840e-01
5.459999999999999964e+00 8.273745566021242226e-01
5.480000000000000426e+00 8.232564586357712377e-01
5.500000000000000000e+00 8.191598932920109988e-01
5.520000000000000462e+00 8.150847897853036317e-01
5.540000000000000036e+00 8.110310659338783035e-01
5.560000000000000497e+00 8.069986500316885802e-01
5.580000000000000071e+00 8.029874586452931950e-01
5.600000000000000533e+00 7.989974192312073731e-01
5.620000000000000107e+00 7.950284471810243891e-01
5.639999999999999680e+00 7.910804691941246691e-01
5.660000000000000142e+00 7.871533995610759948e-01
5.679999999999999716e+00 7.832471643017083762e-01
5.700000000000000178e+00 7.793616766767597070e-01
5.719999999999999751e+00 7.754968621014323160e-01
5.740000000000000213e+00 7.716526328752236763e-01
5.759999999999999787e+00 7.678289138810400205e-01
5.780000000000000249e+00 7.640256165230885355e-01
5.799999999999999822e+00 7.602426652217910696e-01
5.820000000000000284e+00 7.564799705495365290e-01
5.839999999999999858e+00 7.527374565316039545e-01
5.860000000000000320e+00 7.490150329695260956e-01
5.879999999999999893e+00 7.453126235583890091e-01
5.900000000000000355e+00 7.416301373874739644e-01
5.919999999999999929e+00 7.379674978842770683e-01
5.940000000000000391e+00 7.343246134820546889e-01
5.959999999999999964e+00 7.307014074010520499e-01
5.980000000000000426e+00 7.270977874724787737e-01
6.000000000000000000e+00 7.235136767674498204e-01
6.020000000000000462e+00 7.199489825668590193e-01
6.040000000000000036e+00 7.164036278486520803e-01
6.060000000000000497e+00 7.128775193930184662e-01
6.080000000000000071e+00 7.093705801386116505e-01
6.100000000000000533e+00 7.058827164123712139e-01
6.120000000000000107e+00 7.024138511655063644e-01
6.140000000000000568e+00 6.989638903171770945e-01
6.160000000000000142e+00 6.955327568809999139e-01
6.179999999999999716e+00 6.921203564117967000e-01
6.200000000000000178e+00 6.887266120335450159e-01
6.219999999999999751e+00 6.853514289782648428e-01
6.240000000000000213e+00 6.819947305263758253e-01
6.259999999999999787e+00 6.786564216267448879e-01
6.280000000000000249e+00 6.753364257605085630e-01
6.299999999999999822e+00 6.720346476312206718e-01
6.320000000000000284e+00 6.687510109632610611e-01
6.339999999999999858e+00 6.654854202509253858e-01
6.360000000000000320e+00 6.622377995026582642e-01
6.379999999999999893e+00 6.590080530378669144e-01
6.400000000000000355e+00 6.557961051882406078e-01
6.419999999999999929e+00 6.526018601309629963e-01
6.440000000000000391e+00 6.494252425585549382e-01
6.459999999999999964e+00 6.462661565370708683e-01
6.480000000000000426e+00 6.431245271558997390e-01
6.500000000000000000e+00 6.400002583994599537e-01
6.520000000000000462e+00 6.368932757885542584e-01
6.540000000000000036e+00 6.338034832539717334e-01
6.560000000000000497e+00 6.307308067810252217e-01
6.580000000000000071e+00 6.276751502733839416e-01
6.600000000000000533e+00 6.246364402125754722e-01
6.620000000000000107e+00 6.216145805002594171e-01
6.640000000000000568e+00 6.186094981445241503e-01
6.660000000000000142e+00 6.156210970687291395e-01
6.679999999999999716e+00 6.126493048365573291e-01
6.700000000000000178e+00 6.096940254154711303e-01
6.719999999999999751e+00 6.067551869525281694e-01
6.740000000000000213e+00 6.038326934803693868e-01
6.759999999999999787e+00 6.009264737559812941e-01
6.780000000000000249e+00 5.980364318970494697e-01
6.799999999999999822e+00 5.951624972958657889e-01
6.820000000000000284e+00 5.923045741737735792e-01
6.839999999999999858e+00 5.894625925826143531e-01
6.860000000000000320e+00 5.866364568648748667e-01
6.879999999999999893e+00 5.838260977550880915e-01
6.900000000000000355e+00 5.810314197332026032e-01
6.919999999999999929e+00 5.782523542385310522e-01
6.940000000000000391e+00 5.754888059037467363e-01
6.959999999999999964e+00 5.727407068940001400e-01
6.980000000000000426e+00 5.700079620088627230e-01
7.000000000000000000e+00 5.672905041594110687e-01
7.020000000000000462e+00 5.645882383252958103e-01
7.040000000000000036e+00 5.619010981826606521e-01
7.060000000000000497e+00 5.592289889033971173e-01
7.080000000000000071e+00 5.565718449469384543e-01
7.100000000000000533e+00 5.539295716886708520e-01
7.120000000000000107e+00 5.513021043886667805e-01
7.140000000000000568e+00 5.486893486360971961e-01
7.160000000000000142e+00 5.460912405081833620e-01
7.179999999999999716e+00 5.435076858173245595e-01
7.200000000000000178e+00 5.409386214735812937e-01
7.219999999999999751e+00 5.383839535211377703e-01
7.240000000000000213e+00 5.358436197178078064e-01
7.259999999999999787e+00 5.333175263473243222e-01
7.280000000000000249e+00 5.308056120294191160e-01
7.299999999999999822e+00 5.283077832942999486e-01
7.320000000000000284e+00 5.258239796370631769e-01
7.339999999999999858e+00 5.233541078406022118e-01
7.360000000000000320e+00 5.208981082881282143e-01
7.379999999999999893e+00 5.184558880206436848e-01
7.400000000000000355e+00 5.160273883215612534e-01
7.419999999999999929e+00 5.136125164947470401e-01
7.440000000000000391e+00 5.112112147352756431e-01
7.459999999999999964e+00 5.088233906138954765e-01
7.480000000000000426e+00 5.064489872481882093e-01
7.500000000000000000e+00 5.040879124791916022e-01
7.520000000000000462e+00 5.017401103572517451e-01
7.540000000000000036e+00 4.994054889964336108e-01
7.560000000000000497e+00 4.970839933895461193e-01
7.580000000000000071e+00 4.947755319258283491e-01
7.600000000000000533e+00 4.924800505497161085e-01
7.620000000000000107e+00 4.901974579271615173e-01
7.640000000000000568e+00 4.879277009628826267e-01
7.660000000000000142e+00 4.856706886005315860e-01
7.679999999999999716e+00 4.834263687132747123e-01
7.700000000000000178e+00 4.811946505228845150e-01
7.719999999999999751e+00 4.789754828786619845e-01
7.740000000000000213e+00 4.767687752804334878e-01
7.759999999999999787e+00 4.745744775608858324e-01
7.780000000000000249e+00 4.723924994972814595e-01
7.799999999999999822e+00 4.702227919125139266e-01
7.820000000000000284e+00 4.680652648602227073e-01
7.839999999999999858e+00 4.659198701599188142e-01
7.860000000000000320e+00 4.637865181400588899e-01
7.879999999999999893e+00 4.616651616227959165e-01
