# Electrodo circular de radio 6 mm y espesor 710.0 um.
# Volumen de simulacion (convencion z,y,x):
# N: 1024 x 1024 x 1024 | voxelSize:  0.02mm x 0.02mm x 0.02mm | FOV:  20.48mm x 20.48mm x 20.48mm
# 
# z [mm]		 delta[ppm]
0.000000000000000000e+00 3.357031977622911167e+00
2.000000000000000042e-02 3.344944289967306084e+00
4.000000000000000083e-02 3.332563078253565791e+00
5.999999999999999778e-02 3.319896531904035442e+00
8.000000000000000167e-02 3.306952824799414437e+00
1.000000000000000056e-01 3.293740205517608821e+00
1.199999999999999956e-01 3.280266980375193597e+00
1.400000000000000133e-01 3.266541520274909516e+00
1.600000000000000033e-01 3.252572235636988385e+00
1.799999999999999933e-01 3.238367577952079746e+00
2.000000000000000111e-01 3.223936017182532421e+00
2.200000000000000011e-01 3.209286042597853772e+00
2.399999999999999911e-01 3.194426140676680070e+00
2.600000000000000089e-01 3.179364796411602523e+00
2.800000000000000266e-01 3.164110471649121958e+00
2.999999999999999889e-01 3.148671607117861981e+00
3.200000000000000067e-01 3.133056601035584254e+00
3.400000000000000244e-01 3.117273812044232262e+00
3.599999999999999867e-01 3.101331538137753530e+00
3.800000000000000044e-01 3.085238020600215236e+00
4.000000000000000222e-01 3.069001423220868219e+00
4.199999999999999845e-01 3.052629837313917793e+00
4.400000000000000022e-01 3.036131261267945636e+00
4.600000000000000200e-01 3.019513606692215912e+00
4.799999999999999822e-01 3.002784678290607356e+00
5.000000000000000000e-01 2.985952181167101482e+00
5.200000000000000178e-01 2.969023701052229569e+00
5.400000000000000355e-01 2.952006712780577136e+00
5.600000000000000533e-01 2.934908560857245607e+00
5.799999999999999600e-01 2.917736469110084663e+00
5.999999999999999778e-01 2.900497521604195938e+00
6.199999999999999956e-01 2.883198673457748828e+00
6.400000000000000133e-01 2.865846732082498516e+00
6.600000000000000311e-01 2.848448369143823378e+00
6.800000000000000488e-01 2.831010102117845761e+00
7.000000000000000666e-01 2.813538307366232338e+00
7.199999999999999734e-01 2.796039201978048006e+00
7.399999999999999911e-01 2.778518857923628183e+00
7.600000000000000089e-01 2.760983184158286363e+00
7.800000000000000266e-01 2.743437941812540970e+00
8.000000000000000444e-01 2.725888726518217009e+00
8.200000000000000622e-01 2.708340984588110789e+00
8.399999999999999689e-01 2.690799995532532130e+00
8.599999999999999867e-01 2.673270889177158605e+00
8.800000000000000044e-01 2.655758628326081006e+00
9.000000000000000222e-01 2.638268026764430729e+00
9.200000000000000400e-01 2.620803732031074418e+00
9.400000000000000577e-01 2.603370244250442500e+00
9.599999999999999645e-01 2.585971898969806393e+00
9.799999999999999822e-01 2.568612886764327197e+00
1.000000000000000000e+00 2.551297236100896093e+00
1.020000000000000018e+00 2.534028833660087798e+00
1.040000000000000036e+00 2.516811407183229488e+00
1.060000000000000053e+00 2.499648546455998321e+00
1.080000000000000071e+00 2.482543686102445690e+00
1.100000000000000089e+00 2.465500127176027068e+00
1.120000000000000107e+00 2.448521019861235271e+00
1.140000000000000124e+00 2.431609385619880825e+00
1.159999999999999920e+00 2.414768099768035636e+00
1.179999999999999938e+00 2.397999914127412868e+00
1.199999999999999956e+00 2.381307439443785423e+00
1.219999999999999973e+00 2.364693168496012188e+00
1.239999999999999991e+00 2.348159458328962224e+00
1.260000000000000009e+00 2.331708553775305948e+00
1.280000000000000027e+00 2.315342569475520307e+00
1.300000000000000044e+00 2.299063513770552181e+00
1.320000000000000062e+00 2.282873270487996820e+00
1.340000000000000080e+00 2.266773623166590923e+00
1.360000000000000098e+00 2.250766236587779634e+00
1.380000000000000115e+00 2.234852681296055632e+00
1.400000000000000133e+00 2.219034414861164706e+00
1.419999999999999929e+00 2.203312806661125833e+00
1.439999999999999947e+00 2.187689118860790760e+00
1.459999999999999964e+00 2.172164531427248857e+00
1.479999999999999982e+00 2.156740122815941962e+00
1.500000000000000000e+00 2.141416895190799252e+00
1.520000000000000018e+00 2.126195754809598881e+00
1.540000000000000036e+00 2.111077537423823092e+00
1.560000000000000053e+00 2.096062988359797430e+00
1.580000000000000071e+00 2.081152788075564253e+00
1.600000000000000089e+00 2.066347531934813908e+00
1.620000000000000107e+00 2.051647755900339654e+00
1.640000000000000124e+00 2.037053916001954068e+00
1.660000000000000142e+00 2.022566414148088576e+00
1.679999999999999938e+00 2.008185577289172130e+00
1.699999999999999956e+00 1.993911683330835904e+00
1.719999999999999973e+00 1.979744939997831521e+00
1.739999999999999991e+00 1.965685510833890648e+00
1.760000000000000009e+00 1.951733493771381500e+00
1.780000000000000027e+00 1.937888947204374324e+00
1.800000000000000044e+00 1.924151868272255816e+00
1.820000000000000062e+00 1.910522218993832899e+00
1.840000000000000080e+00 1.896999904273024340e+00
1.860000000000000098e+00 1.883584798082983625e+00
1.880000000000000115e+00 1.870276721204504833e+00
1.900000000000000133e+00 1.857075467450117534e+00
1.919999999999999929e+00 1.843980781145540204e+00
1.939999999999999947e+00 1.830992383384554500e+00
1.959999999999999964e+00 1.818109949265938052e+00
1.979999999999999982e+00 1.805333134170582499e+00
2.000000000000000000e+00 1.792661550765885847e+00
2.020000000000000018e+00 1.780094795297213706e+00
2.040000000000000036e+00 1.767632424373413391e+00
2.060000000000000053e+00 1.755273981265147443e+00
2.080000000000000071e+00 1.743018972484637219e+00
2.100000000000000089e+00 1.730866894083794350e+00
2.120000000000000107e+00 1.718817208042692446e+00
2.140000000000000124e+00 1.706869368560681055e+00
2.160000000000000142e+00 1.695022798267402209e+00
2.180000000000000160e+00 1.683276914500311916e+00
2.200000000000000178e+00 1.671631105353200253e+00
2.220000000000000195e+00 1.660084755933660228e+00
2.240000000000000213e+00 1.648637224263328038e+00
2.260000000000000231e+00 1.637287867508962602e+00
2.280000000000000249e+00 1.626036017749525886e+00
2.300000000000000266e+00 1.614881008174569921e+00
2.319999999999999840e+00 1.603822148732500397e+00
2.339999999999999858e+00 1.592858752289963098e+00
2.359999999999999876e+00 1.581990110176432651e+00
2.379999999999999893e+00 1.571215518298223257e+00
2.399999999999999911e+00 1.560534252593711591e+00
2.419999999999999929e+00 1.549945595095583384e+00
2.439999999999999947e+00 1.539448809311638966e+00
2.459999999999999964e+00 1.529043166228771788e+00
2.479999999999999982e+00 1.518727919633499956e+00
2.500000000000000000e+00 1.508502332051085526e+00
2.520000000000000018e+00 1.498365650020471618e+00
2.540000000000000036e+00 1.488317129961832075e+00
2.560000000000000053e+00 1.478356013419792170e+00
2.580000000000000071e+00 1.468481552852582972e+00
2.600000000000000089e+00 1.458692986857870411e+00
2.620000000000000107e+00 1.448989565876573904e+00
2.640000000000000124e+00 1.439370527414847611e+00
2.660000000000000142e+00 1.429835121655472108e+00
2.680000000000000160e+00 1.420382586689958648e+00
2.700000000000000178e+00 1.411012174030287447e+00
2.720000000000000195e+00 1.401723123864321963e+00
2.740000000000000213e+00 1.392514690460555427e+00
2.760000000000000231e+00 1.383386117460388753e+00
2.780000000000000249e+00 1.374336663168414852e+00
2.800000000000000266e+00 1.365365575894376793e+00
2.819999999999999840e+00 1.356472119121386211e+00
2.839999999999999858e+00 1.347655546910720092e+00
2.859999999999999876e+00 1.338915128940266763e+00
2.879999999999999893e+00 1.330250125984586473e+00
2.899999999999999911e+00 1.321659814815772993e+00
2.919999999999999929e+00 1.313143463771534014e+00
2.939999999999999947e+00 1.304700357510522490e+00
2.959999999999999964e+00 1.296329772680508974e+00
2.979999999999999982e+00 1.288031002520181101e+00
3.000000000000000000e+00 1.279803332639747326e+00
3.020000000000000018e+00 1.271646065461105923e+00
3.040000000000000036e+00 1.263558496122575869e+00
3.060000000000000053e+00 1.255539936749254126e+00
3.080000000000000071e+00 1.247589692493859204e+00
3.100000000000000089e+00 1.239707085629005334e+00
3.120000000000000107e+00 1.231891431735528952e+00
3.140000000000000124e+00 1.224142063608353537e+00
3.160000000000000142e+00 1.216458307603917932e+00
3.180000000000000160e+00 1.208839507351265885e+00
3.200000000000000178e+00 1.201285000269581182e+00
3.220000000000000195e+00 1.193794141076106596e+00
3.240000000000000213e+00 1.186366278485046388e+00
3.260000000000000231e+00 1.179000778503852098e+00
3.280000000000000249e+00 1.171697001324213616e+00
3.300000000000000266e+00 1.164454324398219054e+00
3.320000000000000284e+00 1.157272119532377852e+00
3.339999999999999858e+00 1.150149775735142876e+00
3.359999999999999876e+00 1.143086676524380119e+00
3.379999999999999893e+00 1.136082222537721620e+00
3.399999999999999911e+00 1.129135809064125695e+00
3.419999999999999929e+00 1.122246848408507747e+00
3.439999999999999947e+00 1.115414747657525130e+00
3.459999999999999964e+00 1.108638930789955346e+00
3.479999999999999982e+00 1.101918816687037062e+00
3.500000000000000000e+00 1.095253840980051407e+00
3.520000000000000018e+00 1.088643434315090586e+00
3.540000000000000036e+00 1.082087043929308434e+00
3.560000000000000053e+00 1.075584112180183238e+00
3.580000000000000071e+00 1.069134097841903053e+00
3.600000000000000089e+00 1.062736454908747019e+00
3.620000000000000107e+00 1.056390653603104468e+00
3.640000000000000124e+00 1.050096159462767131e+00
3.660000000000000142e+00 1.043852454052111689e+00
3.680000000000000160e+00 1.037659014342668273e+00
3.700000000000000178e+00 1.031515333118994571e+00
3.720000000000000195e+00 1.025420898662106506e+00
3.740000000000000213e+00 1.019375214841615307e+00
3.760000000000000231e+00 1.013377781111137299e+00
3.780000000000000249e+00 1.007428112278311971e+00
3.800000000000000266e+00 1.001525718821526523e+00
3.820000000000000284e+00 9.956701263294537307e-01
3.839999999999999858e+00 9.898608561480091161e-01
3.859999999999999876e+00 9.840974444810945965e-01
3.879999999999999893e+00 9.783794233768886572e-01
3.899999999999999911e+00 9.727063394815315123e-01
3.919999999999999929e+00 9.670777353734497650e-01
3.939999999999999947e+00 9.614931679617622073e-01
3.959999999999999964e+00 9.559521901775361874e-01
3.979999999999999982e+00 9.504543690087127183e-01
4.000000000000000000e+00 9.449992675568306133e-01
4.020000000000000462e+00 9.395864627003392977e-01
4.040000000000000036e+00 9.342155275254548918e-01
4.060000000000000497e+00 9.288860486098043934e-01
4.080000000000000071e+00 9.235976088357314984e-01
4.099999999999999645e+00 9.183498042862530131e-01
4.120000000000000107e+00 9.131422274492974056e-01
4.139999999999999680e+00 9.079744837179856143e-01
4.160000000000000142e+00 9.028461749939803438e-01
4.179999999999999716e+00 8.977569157841699399e-01
4.200000000000000178e+00 8.927063172114024781e-01
4.219999999999999751e+00 8.876940026997409694e-01
4.240000000000000213e+00 8.827195924005472039e-01
4.259999999999999787e+00 8.777827184585044185e-01
4.280000000000000249e+00 8.728830098611806143e-01
4.299999999999999822e+00 8.680201072780635574e-01
4.320000000000000284e+00 8.631936483414156536e-01
4.339999999999999858e+00 8.584032820506384276e-01
4.360000000000000320e+00 8.536486544923745923e-01
4.379999999999999893e+00 8.489294228025796585e-01
4.400000000000000355e+00 8.442452413334969874e-01
4.419999999999999929e+00 8.395957751658811308e-01
4.440000000000000391e+00 8.349806867306441838e-01
4.459999999999999964e+00 8.303996488637109818e-01
4.480000000000000426e+00 8.258523318898479681e-01
4.500000000000000000e+00 8.213384162126761145e-01
4.520000000000000462e+00 8.168575798683274103e-01
4.540000000000000036e+00 8.124095106432419611e-01
4.560000000000000497e+00 8.079938941049821244e-01
4.580000000000000071e+00 8.036104252404722148e-01
4.600000000000000533e+00 7.992587969714840535e-01
4.620000000000000107e+00 7.949387113060257803e-01
4.639999999999999680e+00 7.906498683457208188e-01
4.660000000000000142e+00 7.863919769431138018e-01
4.679999999999999716e+00 7.821647442083007329e-01
4.700000000000000178e+00 7.779678856649917540e-01
4.719999999999999751e+00 7.738011152634708401e-01
4.740000000000000213e+00 7.696641550282895539e-01
4.759999999999999787e+00 7.655567255848081398e-01
4.780000000000000249e+00 7.614785552914368205e-01
4.799999999999999822e+00 7.574293712867276041e-01
4.820000000000000284e+00 7.534089080991620557e-01
4.839999999999999858e+00 7.494168992218939174e-01
4.860000000000000320e+00 7.454530851931138180e-01
4.879999999999999893e+00 7.415172057053086574e-01
4.900000000000000355e+00 7.376090071492817923e-01
4.919999999999999929e+00 7.337282352649335815e-01
4.940000000000000391e+00 7.298746421420625463e-01
4.959999999999999964e+00 7.260479794194254488e-01
4.980000000000000426e+00 7.222480047354753463e-01
5.000000000000000000e+00 7.184744754826276614e-01
5.020000000000000462e+00 7.147271547011523340e-01
5.040000000000000036e+00 7.110058053952753587e-01
5.060000000000000497e+00 7.073101958635034103e-01
5.080000000000000071e+00 7.036400945833800602e-01
5.100000000000000533e+00 6.999952749715213640e-01
5.120000000000000107e+00 6.963755108436119334e-01
5.139999999999999680e+00 6.927805805974763809e-01
5.160000000000000142e+00 6.892102632550566321e-01
5.179999999999999716e+00 6.856643420618859786e-01
5.200000000000000178e+00 6.821426011175385495e-01
5.219999999999999751e+00 6.786448283849112473e-01
5.240000000000000213e+00 6.751708129158149330e-01
5.259999999999999787e+00 6.717203472634842853e-01
5.280000000000000249e+00 6.682932253097436659e-01
5.299999999999999822e+00 6.648892440742154575e-01
5.320000000000000284e+00 6.615082021496510034e-01
5.339999999999999858e+00 6.581499009013412893e-01
5.360000000000000320e+00 6.548141435169682056e-01
5.379999999999999893e+00 6.515007355897307617e-01
5.400000000000000355e+00 6.482094847892866385e-01
5.419999999999999929e+00 6.449402008221145621e-01
5.440000000000000391e+00 6.416926957298714207e-01
5.459999999999999964e+00 6.384667832205447313e-01
5.480000000000000426e+00 6.352622796007446615e-01
5.500000000000000000e+00 6.320790024712162891e-01
5.520000000000000462e+00 6.289167722993428411e-01
5.540000000000000036e+00 6.257754104726185318e-01
5.560000000000000497e+00 6.226547415178388389e-01
5.580000000000000071e+00 6.195545905061357050e-01
5.600000000000000533e+00 6.164747859251124007e-01
5.620000000000000107e+00 6.134151564290468706e-01
5.639999999999999680e+00 6.103755343704443392e-01
5.660000000000000142e+00 6.073557518890232432e-01
5.679999999999999716e+00 6.043556451089174830e-01
5.700000000000000178e+00 6.013750495600734824e-01
5.719999999999999751e+00 5.984138050475666937e-01
5.740000000000000213e+00 5.954717503990250016e-01
5.759999999999999787e+00 5.925487290122887218e-01
5.780000000000000249e+00 5.896445829224931101e-01
5.799999999999999822e+00 5.867591590345317965e-01
5.820000000000000284e+00 5.838923025034220560e-01
5.839999999999999858e+00 5.810438636577925919e-01
5.860000000000000320e+00 5.782136906871587767e-01
5.879999999999999893e+00 5.754016372629201514e-01
5.900000000000000355e+00 5.726075545261368749e-01
5.919999999999999929e+00 5.698312994122899378e-01
5.940000000000000391e+00 5.670727259331577175e-01
5.959999999999999964e+00 5.643316942118469237e-01
5.980000000000000426e+00 5.616080610523375150e-01
6.000000000000000000e+00 5.589016896910704579e-01
6.020000000000000462e+00 5.562124396477269306e-01
6.040000000000000036e+00 5.535401771999067799e-01
6.060000000000000497e+00 5.508847645086805134e-01
6.080000000000000071e+00 5.482460708226928325e-01
6.100000000000000533e+00 5.456239608719973821e-01
6.120000000000000107e+00 5.430183068081706477e-01
6.140000000000000568e+00 5.404289758599247762e-01
6.160000000000000142e+00 5.378558430156066272e-01
6.179999999999999716e+00 5.352987779340525609e-01
6.200000000000000178e+00 5.327576583761263196e-01
6.219999999999999751e+00 5.302323563642228343e-01
6.240000000000000213e+00 5.277227523693102107e-01
6.259999999999999787e+00 5.252287207124740620e-01
6.280000000000000249e+00 5.227501445141745640e-01
6.299999999999999822e+00 5.202869003311837437e-01
6.320000000000000284e+00 5.178388738745924869e-01
6.339999999999999858e+00 5.154059438754414746e-01
6.360000000000000320e+00 5.129879985782914709e-01
6.379999999999999893e+00 5.105849188288077434e-01
6.400000000000000355e+00 5.081965953495171107e-01
6.419999999999999929e+00 5.058229110425501718e-01
6.440000000000000391e+00 5.034637590545006924e-01
6.459999999999999964e+00 5.011190242874892231e-01
6.480000000000000426e+00 4.987886022598481683e-01
6.500000000000000000e+00 4.964723798186006509e-01
6.520000000000000462e+00 4.941702548030036946e-01
6.540000000000000036e+00 4.918821159514875641e-01
6.560000000000000497e+00 4.896078633749055276e-01
6.580000000000000071e+00 4.873473876509005764e-01
6.600000000000000533e+00 4.851005911140287008e-01
6.620000000000000107e+00 4.828673661304623277e-01
6.640000000000000568e+00 4.806476172119634183e-01
6.660000000000000142e+00 4.784412384637579674e-01
6.679999999999999716e+00 4.762481365296745150e-01
6.700000000000000178e+00 4.740682072059558272e-01
6.719999999999999751e+00 4.719013592246760203e-01
6.740000000000000213e+00 4.697474900261864317e-01
6.759999999999999787e+00 4.676065103882680041e-01
6.780000000000000249e+00 4.654783193498238658e-01
6.799999999999999822e+00 4.633628296930562551e-01
6.820000000000000284e+00 4.612599420109135817e-01
6.839999999999999858e+00 4.591695710499460459e-01
6.860000000000000320e+00 4.570916189139248020e-01
6.879999999999999893e+00 4.550260022748432442e-01
6.900000000000000355e+00 4.529726247050631094e-01
6.919999999999999929e+00 4.509314047642670187e-01
6.940000000000000391e+00 4.489022474523771122e-01
6.959999999999999964e+00 4.468850731801193854e-01
6.980000000000000426e+00 4.448797883348653004e-01
7.000000000000000000e+00 4.428863151428279465e-01
7.020000000000000462e+00 4.409045613398570596e-01
7.040000000000000036e+00 4.389344509331413735e-01
7.060000000000000497e+00 4.369758929688937199e-01
7.080000000000000071e+00 4.350288132017882670e-01
7.100000000000000533e+00 4.330931219513656227e-01
7.120000000000000107e+00 4.311687466872941576e-01
7.140000000000000568e+00 4.292555989661938076e-01
7.160000000000000142e+00 4.273536079411996980e-01
7.179999999999999716e+00 4.254626863707900997e-01
7.200000000000000178e+00 4.235827650609773065e-01
7.219999999999999751e+00 4.217137579376038503e-01
7.240000000000000213e+00 4.198555974298867621e-01
7.259999999999999787e+00 4.180081985975136472e-01
7.280000000000000249e+00 4.161714954641175246e-01
7.299999999999999822e+00 4.143454041903774643e-01
7.320000000000000284e+00 4.125298603664203090e-01
7.339999999999999858e+00 4.107247812219960714e-01
7.360000000000000320e+00 4.089301038866448579e-01
7.379999999999999893e+00 4.071457466278715076e-01
7.400000000000000355e+00 4.053716480883682305e-01
7.419999999999999929e+00 4.036077275429595934e-01
7.440000000000000391e+00 4.018539251220227260e-01
7.459999999999999964e+00 4.001101610778314277e-01
7.480000000000000426e+00 3.983763770037552221e-01
7.500000000000000000e+00 3.966524941004812566e-01
7.520000000000000462e+00 3.949384554004296000e-01
7.540000000000000036e+00 3.932341830241834479e-01
7.560000000000000497e+00 3.915396214200129177e-01
7.580000000000000071e+00 3.898546936006579977e-01
7.600000000000000533e+00 3.881793454077452354e-01
7.620000000000000107e+00 3.865135007189173799e-01
7.640000000000000568e+00 3.848571067473688379e-01
7.660000000000000142e+00 3.832100882091329375e-01
7.679999999999999716e+00 3.815723936678531159e-01
7.700000000000000178e+00 3.799439486518688680e-01
7.719999999999999751e+00 3.783247030548220202e-01
7.740000000000000213e+00 3.767145831919885834e-01
7.759999999999999787e+00 3.751135402671994523e-01
7.780000000000000249e+00 3.735215013576827503e-01
7.799999999999999822e+00 3.719384189582741196e-01
7.820000000000000284e+00 3.703642208838530125e-01
7.839999999999999858e+00 3.687988609016891739e-01
7.860000000000000320e+00 3.672422675403508308e-01
7.879999999999999893e+00 3.656943958215717050e-01
