# Electrodo circular de radio 6 mm y espesor 710.0 um.
# Volumen de simulacion (convencion z,y,x):
# N: 1024 x 1024 x 1024 | voxelSize:  0.02mm x 0.02mm x 0.02mm | FOV:  20.48mm x 20.48mm x 20.48mm
# 
# z [mm]		 delta[ppm]
0.000000000000000000e+00 2.650327015281482179e+00
2.000000000000000042e-02 2.646162261831650042e+00
4.000000000000000083e-02 2.641876701599467303e+00
5.999999999999999778e-02 2.637471582363596134e+00
8.000000000000000167e-02 2.632948150063837200e+00
1.000000000000000056e-01 2.628307683321696064e+00
1.199999999999999956e-01 2.623551483075626578e+00
1.400000000000000133e-01 2.618680879247308191e+00
1.600000000000000033e-01 2.613697222698772915e+00
1.799999999999999933e-01 2.608601891359409564e+00
2.000000000000000111e-01 2.603396282162731445e+00
2.200000000000000011e-01 2.598081817085082346e+00
2.399999999999999911e-01 2.592659935399336923e+00
2.600000000000000089e-01 2.587132099628283832e+00
2.800000000000000266e-01 2.581499787659512712e+00
2.999999999999999889e-01 2.575764498797738167e+00
3.200000000000000067e-01 2.569927745813729736e+00
3.400000000000000244e-01 2.563991061142859351e+00
3.599999999999999867e-01 2.557955988706432926e+00
3.800000000000000044e-01 2.551824090312921456e+00
4.000000000000000222e-01 2.545596937311859431e+00
4.199999999999999845e-01 2.539276117212279527e+00
4.400000000000000022e-01 2.532863225093057391e+00
4.600000000000000200e-01 2.526359870460596735e+00
4.799999999999999822e-01 2.519767668461049492e+00
5.000000000000000000e-01 2.513088246982164708e+00
5.200000000000000178e-01 2.506323237625215139e+00
5.400000000000000355e-01 2.499474283060919344e+00
5.600000000000000533e-01 2.492543027795994792e+00
5.799999999999999600e-01 2.485531125784357531e+00
5.999999999999999778e-01 2.478440230962805746e+00
6.199999999999999956e-01 2.471272005121944559e+00
6.400000000000000133e-01 2.464028108238687231e+00
6.600000000000000311e-01 2.456710206606191438e+00
6.800000000000000488e-01 2.449319962947084761e+00
7.000000000000000666e-01 2.441859044803787793e+00
7.199999999999999734e-01 2.434329114455112908e+00
7.399999999999999911e-01 2.426731837565013095e+00
7.600000000000000089e-01 2.419068872892165434e+00
7.800000000000000266e-01 2.411341881196555903e+00
8.000000000000000444e-01 2.403552514761038594e+00
8.200000000000000622e-01 2.395702426552826392e+00
8.399999999999999689e-01 2.387793259550340608e+00
8.599999999999999867e-01 2.379826656157566944e+00
8.800000000000000044e-01 2.371804247352485628e+00
9.000000000000000222e-01 2.363727662350496139e+00
9.200000000000000400e-01 2.355598517570270722e+00
9.400000000000000577e-01 2.347418426543073533e+00
9.599999999999999645e-01 2.339188988710214190e+00
9.799999999999999822e-01 2.330911799573740950e+00
1.000000000000000000e+00 2.322588439323111320e+00
1.020000000000000018e+00 2.314220483223116354e+00
1.040000000000000036e+00 2.305809490082324942e+00
1.060000000000000053e+00 2.297357012873059823e+00
1.080000000000000071e+00 2.288864587040504883e+00
1.100000000000000089e+00 2.280333741349767074e+00
1.120000000000000107e+00 2.271765986046969665e+00
1.140000000000000124e+00 2.263162823927569178e+00
1.159999999999999920e+00 2.254525738349306696e+00
1.179999999999999938e+00 2.245856204516136323e+00
1.199999999999999956e+00 2.237155677353320993e+00
1.219999999999999973e+00 2.228425603000617983e+00
1.239999999999999991e+00 2.219667406550139610e+00
1.260000000000000009e+00 2.210882503742556793e+00
1.280000000000000027e+00 2.202072288577224146e+00
1.300000000000000044e+00 2.193238145204544853e+00
1.320000000000000062e+00 2.184381435409635586e+00
1.340000000000000080e+00 2.175503510694077658e+00
1.360000000000000098e+00 2.166605699642006222e+00
1.380000000000000115e+00 2.157689320183976189e+00
1.400000000000000133e+00 2.148755666847279588e+00
1.419999999999999929e+00 2.139806023194728457e+00
1.439999999999999947e+00 2.130841648967590096e+00
1.459999999999999964e+00 2.121863792691669914e+00
1.479999999999999982e+00 2.112873678715158743e+00
1.500000000000000000e+00 2.103872519974416821e+00
1.520000000000000018e+00 2.094861504934804053e+00
1.540000000000000036e+00 2.085841810508241245e+00
1.560000000000000053e+00 2.076814588899733582e+00
1.580000000000000071e+00 2.067780980668838087e+00
1.600000000000000089e+00 2.058742101489679399e+00
1.620000000000000107e+00 2.049699055348167320e+00
1.640000000000000124e+00 2.040652921218633509e+00
1.660000000000000142e+00 2.031604766388665162e+00
1.679999999999999938e+00 2.022555633059998303e+00
1.699999999999999956e+00 2.013506551792641819e+00
1.719999999999999973e+00 2.004458528033524534e+00
1.739999999999999991e+00 1.995412555671585597e+00
1.760000000000000009e+00 1.986369603501740633e+00
1.780000000000000027e+00 1.977330628882428165e+00
1.800000000000000044e+00 1.968296564138785953e+00
1.820000000000000062e+00 1.959268330314193562e+00
1.840000000000000080e+00 1.950246823520177086e+00
1.860000000000000098e+00 1.941232928773329425e+00
1.880000000000000115e+00 1.932227506296190889e+00
1.900000000000000133e+00 1.923231405431000463e+00
1.919999999999999929e+00 1.914245450899047629e+00
1.939999999999999947e+00 1.905270456782587774e+00
1.959999999999999964e+00 1.896307212747268212e+00
1.979999999999999982e+00 1.887356498083550216e+00
2.000000000000000000e+00 1.878419067899781858e+00
2.020000000000000018e+00 1.869495667214413626e+00
2.040000000000000036e+00 1.860587017124629039e+00
2.060000000000000053e+00 1.851693828940683684e+00
2.080000000000000071e+00 1.842816790337718835e+00
2.100000000000000089e+00 1.833956579523470243e+00
2.120000000000000107e+00 1.825113851378536767e+00
2.140000000000000124e+00 1.816289251648744996e+00
2.160000000000000142e+00 1.807483403081578288e+00
2.180000000000000160e+00 1.798696919634452440e+00
2.200000000000000178e+00 1.789930392612865129e+00
2.220000000000000195e+00 1.781184404885875594e+00
2.240000000000000213e+00 1.772459517033797782e+00
2.260000000000000231e+00 1.763756281562117945e+00
2.280000000000000249e+00 1.755075229064583908e+00
2.300000000000000266e+00 1.746416882426876427e+00
2.319999999999999840e+00 1.737781743013009139e+00
2.339999999999999858e+00 1.729170304850011552e+00
2.359999999999999876e+00 1.720583040843778111e+00
2.379999999999999893e+00 1.712020416936077982e+00
2.399999999999999911e+00 1.703482878357866159e+00
2.419999999999999929e+00 1.694970863749931000e+00
2.439999999999999947e+00 1.686484791460047594e+00
2.459999999999999964e+00 1.678025073618583773e+00
2.479999999999999982e+00 1.669592102487644780e+00
2.500000000000000000e+00 1.661186264482961583e+00
2.520000000000000018e+00 1.652807926581632225e+00
2.540000000000000036e+00 1.644457450281667121e+00
2.560000000000000053e+00 1.636135178076564944e+00
2.580000000000000071e+00 1.627841447343857384e+00
2.600000000000000089e+00 1.619576576893354991e+00
2.620000000000000107e+00 1.611340880776090945e+00
2.640000000000000124e+00 1.603134654914572188e+00
2.660000000000000142e+00 1.594958190823499988e+00
2.680000000000000160e+00 1.586811762329055631e+00
2.700000000000000178e+00 1.578695639192827072e+00
2.720000000000000195e+00 1.570610073928547124e+00
2.740000000000000213e+00 1.562555315320635740e+00
2.760000000000000231e+00 1.554531595345612249e+00
2.780000000000000249e+00 1.546539142576697223e+00
2.800000000000000266e+00 1.538578169218395075e+00
2.819999999999999840e+00 1.530648884388617459e+00
2.839999999999999858e+00 1.522751481273786123e+00
2.859999999999999876e+00 1.514886150279963761e+00
2.879999999999999893e+00 1.507053066317056711e+00
2.899999999999999911e+00 1.499252401810414081e+00
2.919999999999999929e+00 1.491484314121661603e+00
2.939999999999999947e+00 1.483748958412245855e+00
2.959999999999999964e+00 1.476046475209539022e+00
2.979999999999999982e+00 1.468377003113852775e+00
3.000000000000000000e+00 1.460740666517429176e+00
3.020000000000000018e+00 1.453137588146454107e+00
3.040000000000000036e+00 1.445567876941621588e+00
3.060000000000000053e+00 1.438031640426667090e+00
3.080000000000000071e+00 1.430528972758263073e+00
3.100000000000000089e+00 1.423059966912609831e+00
3.120000000000000107e+00 1.415624702913392152e+00
3.140000000000000124e+00 1.408223259827978247e+00
3.160000000000000142e+00 1.400855704181281691e+00
3.180000000000000160e+00 1.393522101753122966e+00
3.200000000000000178e+00 1.386222506186767678e+00
3.220000000000000195e+00 1.378956970579036323e+00
3.240000000000000213e+00 1.371725536291407144e+00
3.260000000000000231e+00 1.364528244324465733e+00
3.280000000000000249e+00 1.357365124340388585e+00
3.300000000000000266e+00 1.350236205813299506e+00
3.320000000000000284e+00 1.343141507271121915e+00
3.339999999999999858e+00 1.336081047213440787e+00
3.359999999999999876e+00 1.329054833581542638e+00
3.379999999999999893e+00 1.322062874435382396e+00
3.399999999999999911e+00 1.315105167659866181e+00
3.419999999999999929e+00 1.308181711392513380e+00
3.439999999999999947e+00 1.301292493974811393e+00
3.459999999999999964e+00 1.294437504122228466e+00
3.479999999999999982e+00 1.287616721128695740e+00
3.500000000000000000e+00 1.280830124770577561e+00
3.520000000000000018e+00 1.274077685773159718e+00
3.540000000000000036e+00 1.267359375440208824e+00
3.560000000000000053e+00 1.260675156390561602e+00
3.580000000000000071e+00 1.254024991904897579e+00
3.600000000000000089e+00 1.247408836941319432e+00
3.620000000000000107e+00 1.240826647190972132e+00
3.640000000000000124e+00 1.234278370380731404e+00
3.660000000000000142e+00 1.227763955029335552e+00
3.680000000000000160e+00 1.221283342046044718e+00
3.700000000000000178e+00 1.214836473178904974e+00
3.720000000000000195e+00 1.208423282917572728e+00
3.740000000000000213e+00 1.202043706625364861e+00
3.760000000000000231e+00 1.195697672755075880e+00
3.780000000000000249e+00 1.189385110656494549e+00
3.800000000000000266e+00 1.183105943113390124e+00
3.820000000000000284e+00 1.176860093818148600e+00
3.839999999999999858e+00 1.170647480238793392e+00
3.859999999999999876e+00 1.164468020752388533e+00
3.879999999999999893e+00 1.158321627850294355e+00
3.899999999999999911e+00 1.152208214922003426e+00
3.919999999999999929e+00 1.146127689807477923e+00
3.939999999999999947e+00 1.140079961223078531e+00
3.959999999999999964e+00 1.134064932669190950e+00
3.979999999999999982e+00 1.128082508489915980e+00
4.000000000000000000e+00 1.122132588144834520e+00
4.020000000000000462e+00 1.116215071894109068e+00
4.040000000000000036e+00 1.110329855442591329e+00
4.060000000000000497e+00 1.104476835242040211e+00
4.080000000000000071e+00 1.098655903516377874e+00
4.099999999999999645e+00 1.092866953172694888e+00
4.120000000000000107e+00 1.087109873215873268e+00
4.139999999999999680e+00 1.081384553260044790e+00
4.160000000000000142e+00 1.075690879341417272e+00
4.179999999999999716e+00 1.070028738021846282e+00
4.200000000000000178e+00 1.064398012608072763e+00
4.219999999999999751e+00 1.058798586839095890e+00
4.240000000000000213e+00 1.053230341520638103e+00
4.259999999999999787e+00 1.047693157787970675e+00
4.280000000000000249e+00 1.042186914163819589e+00
4.299999999999999822e+00 1.036711489388346008e+00
4.320000000000000284e+00 1.031266759909283959e+00
4.339999999999999858e+00 1.025852602270708180e+00
4.360000000000000320e+00 1.020468891043678106e+00
4.379999999999999893e+00 1.015115500765444878e+00
4.400000000000000355e+00 1.009792304319362843e+00
4.419999999999999929e+00 1.004499174416237262e+00
4.440000000000000391e+00 9.992359824317046391e-01
4.459999999999999964e+00 9.940025994213986804e-01
4.480000000000000426e+00 9.887988954246019757e-01
4.500000000000000000e+00 9.836247400048272471e-01
4.520000000000000462e+00 9.784800020280175481e-01
4.540000000000000036e+00 9.733645497202186858e-01
4.560000000000000497e+00 9.682782509290619455e-01
4.580000000000000071e+00 9.632209726901755920e-01
4.600000000000000533e+00 9.581925819802182831e-01
4.620000000000000107e+00 9.531929447836615665e-01
4.639999999999999680e+00 9.482219273461540698e-01
4.660000000000000142e+00 9.432793947332979156e-01
4.679999999999999716e+00 9.383652125926033039e-01
4.700000000000000178e+00 9.334792451958868753e-01
4.719999999999999751e+00 9.286213577186072099e-01
4.740000000000000213e+00 9.237914137574703144e-01
4.759999999999999787e+00 9.189892781354412898e-01
4.780000000000000249e+00 9.142148138861599937e-01
4.799999999999999822e+00 9.094678855934140715e-01
4.820000000000000284e+00 9.047483558339501908e-01
4.839999999999999858e+00 9.000560890597028019e-01
4.860000000000000320e+00 8.953909474905976662e-01
4.879999999999999893e+00 8.907527955483128812e-01
4.900000000000000355e+00 8.861414951906424475e-01
4.919999999999999929e+00 8.815569109051251129e-01
4.940000000000000391e+00 8.769989044765060804e-01
4.959999999999999964e+00 8.724673405490479539e-01
4.980000000000000426e+00 8.679620808186264691e-01
5.000000000000000000e+00 8.634829901720717515e-01
5.020000000000000462e+00 8.590299302954201854e-01
5.040000000000000036e+00 8.546027663991181411e-01
5.060000000000000497e+00 8.502013602339237863e-01
5.080000000000000071e+00 8.458255774103576874e-01
5.100000000000000533e+00 8.414752798137431489e-01
5.120000000000000107e+00 8.371503335267591606e-01
5.139999999999999680e+00 8.328506006350668844e-01
5.160000000000000142e+00 8.285759477614008661e-01
5.179999999999999716e+00 8.243262372532196292e-01
5.200000000000000178e+00 8.201013363372180454e-01
5.219999999999999751e+00 8.159011076804224549e-01
5.240000000000000213e+00 8.117254191735852054e-01
5.259999999999999787e+00 8.075741338571110761e-01
5.280000000000000249e+00 8.034471203422715035e-01
5.299999999999999822e+00 7.993442420933313253e-01
5.320000000000000284e+00 7.952653684950753421e-01
5.339999999999999858e+00 7.912103634824899645e-01
5.360000000000000320e+00 7.871790972635783756e-01
5.379999999999999893e+00 7.831714342878828283e-01
5.400000000000000355e+00 7.791872456331780938e-01
5.419999999999999929e+00 7.752263963041048367e-01
5.440000000000000391e+00 7.712887582917653528e-01
5.459999999999999964e+00 7.673741971937212414e-01
5.480000000000000426e+00 7.634825859551056526e-01
5.500000000000000000e+00 7.596137908012058348e-01
5.520000000000000462e+00 7.557676856691808442e-01
5.540000000000000036e+00 7.519441374443915915e-01
5.560000000000000497e+00 7.481430210914401524e-01
5.580000000000000071e+00 7.443642041853705260e-01
5.600000000000000533e+00 7.406075627511711224e-01
5.620000000000000107e+00 7.368729650809834331e-01
5.639999999999999680e+00 7.331602882908083707e-01
5.660000000000000142e+00 7.294694014147781180e-01
5.679999999999999716e+00 7.258001826883170304e-01
5.700000000000000178e+00 7.221525019104708676e-01
5.719999999999999751e+00 7.185262384623880560e-01
5.740000000000000213e+00 7.149212629286809673e-01
5.759999999999999787e+00 7.113374558605197739e-01
5.780000000000000249e+00 7.077746886469604704e-01
5.799999999999999822e+00 7.042328430316021626e-01
5.820000000000000284e+00 7.007117912247556868e-01
5.839999999999999858e+00 6.972114161830504919e-01
5.860000000000000320e+00 6.937315909532782987e-01
5.879999999999999893e+00 6.902721997240022223e-01
5.900000000000000355e+00 6.868331163918389715e-01
5.919999999999999929e+00 6.834142263945619522e-01
5.940000000000000391e+00 6.800154044905559747e-01
5.959999999999999964e+00 6.766365373825615759e-01
5.980000000000000426e+00 6.732775007009482726e-01
6.000000000000000000e+00 6.699381824277220732e-01
6.020000000000000462e+00 6.666184590742265659e-01
6.040000000000000036e+00 6.633182199146557823e-01
6.060000000000000497e+00 6.600373423487475577e-01
6.080000000000000071e+00 6.567757169545184182e-01
6.100000000000000533e+00 6.535332220264121750e-01
6.120000000000000107e+00 6.503097494566786319e-01
6.140000000000000568e+00 6.471051784393730966e-01
6.160000000000000142e+00 6.439194021902115983e-01
6.179999999999999716e+00 6.407523008068015669e-01
6.200000000000000178e+00 6.376037688364831757e-01
6.219999999999999751e+00 6.344736872830456509e-01
6.240000000000000213e+00 6.313619520325697287e-01
6.259999999999999787e+00 6.282684449968398699e-01
6.280000000000000249e+00 6.251930634068197934e-01
6.299999999999999822e+00 6.221356900828962644e-01
6.320000000000000284e+00 6.190962236061448021e-01
6.339999999999999858e+00 6.160745477054531127e-01
6.360000000000000320e+00 6.130705623163665852e-01
6.379999999999999893e+00 6.100841520750831526e-01
6.400000000000000355e+00 6.071152182751722304e-01
6.419999999999999929e+00 6.041636464583217681e-01
6.440000000000000391e+00 6.012293392789133106e-01
6.459999999999999964e+00 5.983121831813265068e-01
6.480000000000000426e+00 5.954120821828204901e-01
6.500000000000000000e+00 5.925289236271329418e-01
6.520000000000000462e+00 5.896626128957987989e-01
6.540000000000000036e+00 5.868130382276715018e-01
6.560000000000000497e+00 5.839801063693242922e-01
6.580000000000000071e+00 5.811637064500440042e-01
6.600000000000000533e+00 5.783637465816223733e-01
6.620000000000000107e+00 5.755801167782580441e-01
6.640000000000000568e+00 5.728127265165837700e-01
6.660000000000000142e+00 5.700614666898284888e-01
6.679999999999999716e+00 5.673262481385692446e-01
6.700000000000000178e+00 5.646069626284166976e-01
6.719999999999999751e+00 5.619035223625225006e-01
6.740000000000000213e+00 5.592158199719294842e-01
6.759999999999999787e+00 5.565437690205417010e-01
6.780000000000000249e+00 5.538872629971879347e-01
6.799999999999999822e+00 5.512462168242867611e-01
6.820000000000000284e+00 5.486205248405616741e-01
6.839999999999999858e+00 5.460101033243240920e-01
6.860000000000000320e+00 5.434148474556629305e-01
6.879999999999999893e+00 5.408346748657998360e-01
6.900000000000000355e+00 5.382694815674725630e-01
6.919999999999999929e+00 5.357191865415052989e-01
6.940000000000000391e+00 5.331836866239773043e-01
6.959999999999999964e+00 5.306629021416910952e-01
6.980000000000000426e+00 5.281567307446302095e-01
7.000000000000000000e+00 5.256650941016833833e-01
7.020000000000000462e+00 5.231878906667433160e-01
7.040000000000000036e+00 5.207250434466363931e-01
7.060000000000000497e+00 5.182764516890854267e-01
7.080000000000000071e+00 5.158420397344636310e-01
7.100000000000000533e+00 5.134217076137420621e-01
7.120000000000000107e+00 5.110153809962413307e-01
7.140000000000000568e+00 5.086229606855449115e-01
7.160000000000000142e+00 5.062443736751336409e-01
7.179999999999999716e+00 5.038795215300936325e-01
7.200000000000000178e+00 5.015283325630975897e-01
7.219999999999999751e+00 4.991907090896255395e-01
7.240000000000000213e+00 4.968665807364203157e-01
7.259999999999999787e+00 4.945558505577958286e-01
7.280000000000000249e+00 4.922584494893059159e-01
7.299999999999999822e+00 4.899742813125651519e-01
7.320000000000000284e+00 4.877032782665573496e-01
7.339999999999999858e+00 4.854453448482570210e-01
7.360000000000000320e+00 4.832004145945889562e-01
7.379999999999999893e+00 4.809683927059960618e-01
7.400000000000000355e+00 4.787492140117632355e-01
7.419999999999999929e+00 4.765427844035226568e-01
7.440000000000000391e+00 4.743490399972680183e-01
7.459999999999999964e+00 4.721678873636191986e-01
7.480000000000000426e+00 4.699992638995596494e-01
7.500000000000000000e+00 4.678430768421308339e-01
7.520000000000000462e+00 4.656992648635334131e-01
7.540000000000000036e+00 4.635677358547831695e-01
7.560000000000000497e+00 4.614484297574851235e-01
7.580000000000000071e+00 4.593412551038115188e-01
7.600000000000000533e+00 4.572461530989340162e-01
7.620000000000000107e+00 4.551630329035170619e-01
7.640000000000000568e+00 4.530918369804481372e-01
7.660000000000000142e+00 4.510324751058579218e-01
7.679999999999999716e+00 4.489848909944926802e-01
7.700000000000000178e+00 4.469489950250982169e-01
7.719999999999999751e+00 4.449247321584139936e-01
7.740000000000000213e+00 4.429120133626199274e-01
7.759999999999999787e+00 4.409107848386102924e-01
7.780000000000000249e+00 4.389209581309870822e-01
7.799999999999999822e+00 4.369424806749771517e-01
7.820000000000000284e+00 4.349752645782788973e-01
7.839999999999999858e+00 4.330192585046577225e-01
7.860000000000000320e+00 4.310743751117824818e-01
7.879999999999999893e+00 4.291405642862011760e-01
