# Electrodo circular de radio 6 mm y espesor 710.0 um.
# Volumen de simulacion (convencion z,y,x):
# N: 1024 x 1024 x 1024 | voxelSize:  0.02mm x 0.02mm x 0.02mm | FOV:  20.48mm x 20.48mm x 20.48mm
# 
# z [mm]		 delta[ppm]
0.000000000000000000e+00 3.068900158478383933e+00
2.000000000000000042e-02 3.060742505480912090e+00
4.000000000000000083e-02 3.052369766888507474e+00
5.999999999999999778e-02 3.043786118883053504e+00
8.000000000000000167e-02 3.034995766639438486e+00
1.000000000000000056e-01 3.026002988332713528e+00
1.199999999999999956e-01 3.016812116652370257e+00
1.400000000000000133e-01 3.007427542981727875e+00
1.600000000000000033e-01 2.997853702000775389e+00
1.799999999999999933e-01 2.988095077209818040e+00
2.000000000000000111e-01 2.978156185894546670e+00
2.200000000000000011e-01 2.968041584563315904e+00
2.399999999999999911e-01 2.957755854284172425e+00
2.600000000000000089e-01 2.947303606096238315e+00
2.800000000000000266e-01 2.936689466465980392e+00
2.999999999999999889e-01 2.925918082917247975e+00
3.200000000000000067e-01 2.914994109434883907e+00
3.400000000000000244e-01 2.903922212453468266e+00
3.599999999999999867e-01 2.892707056190082948e+00
3.800000000000000044e-01 2.881353309073063418e+00
4.000000000000000222e-01 2.869865628949286318e+00
4.199999999999999845e-01 2.858248670010655523e+00
4.400000000000000022e-01 2.846507067897563914e+00
4.600000000000000200e-01 2.834645447158756326e+00
4.799999999999999822e-01 2.822668406230622651e+00
5.000000000000000000e-01 2.810580525458823420e+00
5.200000000000000178e-01 2.798386351978592756e+00
5.400000000000000355e-01 2.786090408315188949e+00
5.600000000000000533e-01 2.773697177156189575e+00
5.799999999999999600e-01 2.761211110544207870e+00
5.999999999999999778e-01 2.748636614562174785e+00
6.199999999999999956e-01 2.735978059124521966e+00
6.400000000000000133e-01 2.723239762569701572e+00
6.600000000000000311e-01 2.710426002053377470e+00
6.800000000000000488e-01 2.697540998063572726e+00
7.000000000000000666e-01 2.684588925414236105e+00
7.199999999999999734e-01 2.671573897677300025e+00
7.399999999999999911e-01 2.658499978772862260e+00
7.600000000000000089e-01 2.645371167328057105e+00
7.800000000000000266e-01 2.632191408856128678e+00
8.000000000000000444e-01 2.618964580035324285e+00
8.200000000000000622e-01 2.605694501467354485e+00
8.399999999999999689e-01 2.592384921881548454e+00
8.599999999999999867e-01 2.579039531460210810e+00
8.800000000000000044e-01 2.565661945959910817e+00
9.000000000000000222e-01 2.552255720589845289e+00
9.200000000000000400e-01 2.538824334051819509e+00
9.400000000000000577e-01 2.525371202955474903e+00
9.599999999999999645e-01 2.511899665767784562e+00
9.799999999999999822e-01 2.498412997748039821e+00
1.000000000000000000e+00 2.484914394805718629e+00
1.020000000000000018e+00 2.471406988936517557e+00
1.040000000000000036e+00 2.457893831978848809e+00
1.060000000000000053e+00 2.444377911531615766e+00
1.080000000000000071e+00 2.430862134606478708e+00
1.100000000000000089e+00 2.417349344007040823e+00
1.120000000000000107e+00 2.403842301867118891e+00
1.140000000000000124e+00 2.390343706470742013e+00
1.159999999999999920e+00 2.376856175672744875e+00
1.179999999999999938e+00 2.363382264138413458e+00
1.199999999999999956e+00 2.349924446637176256e+00
1.219999999999999973e+00 2.336485135680795633e+00
1.239999999999999991e+00 2.323066664686328942e+00
1.260000000000000009e+00 2.309671305991610968e+00
1.280000000000000027e+00 2.296301253879221793e+00
1.300000000000000044e+00 2.282958642948270001e+00
1.320000000000000062e+00 2.269645530996057037e+00
1.340000000000000080e+00 2.256363917725262347e+00
1.360000000000000098e+00 2.243115727476408416e+00
1.380000000000000115e+00 2.229902828250069913e+00
1.400000000000000133e+00 2.216727014287712016e+00
1.419999999999999929e+00 2.203590025388850737e+00
1.439999999999999947e+00 2.190493529334960776e+00
1.459999999999999964e+00 2.177439141482119478e+00
1.479999999999999982e+00 2.164428407026797174e+00
1.500000000000000000e+00 2.151462820854978641e+00
1.520000000000000018e+00 2.138543809646257454e+00
1.540000000000000036e+00 2.125672751961120266e+00
1.560000000000000053e+00 2.112850960183548565e+00
1.580000000000000071e+00 2.100079700828653806e+00
1.600000000000000089e+00 2.087360176322036853e+00
1.620000000000000107e+00 2.074693545510698289e+00
1.640000000000000124e+00 2.062080905280780474e+00
1.660000000000000142e+00 2.049523311255275981e+00
1.679999999999999938e+00 2.037021759250124742e+00
1.699999999999999956e+00 2.024577206142914587e+00
1.719999999999999973e+00 2.012190551170436770e+00
1.739999999999999991e+00 1.999862656953125040e+00
1.760000000000000009e+00 1.987594330635749085e+00
1.780000000000000027e+00 1.975386345052985826e+00
1.800000000000000044e+00 1.963239419717734968e+00
1.820000000000000062e+00 1.951154242113770865e+00
1.840000000000000080e+00 1.939131448534897384e+00
1.860000000000000098e+00 1.927171645491211560e+00
1.880000000000000115e+00 1.915275390404839406e+00
1.900000000000000133e+00 1.903443213116856825e+00
1.919999999999999929e+00 1.891675596444178931e+00
1.939999999999999947e+00 1.879972997774723487e+00
1.959999999999999964e+00 1.868335829492317579e+00
1.979999999999999982e+00 1.856764480648071647e+00
2.000000000000000000e+00 1.845259297259132181e+00
2.020000000000000018e+00 1.833820604044719582e+00
2.040000000000000036e+00 1.822448684606554625e+00
2.060000000000000053e+00 1.811143803218381532e+00
2.080000000000000071e+00 1.799906184894909167e+00
2.100000000000000089e+00 1.788736037224026409e+00
2.120000000000000107e+00 1.777633530332925149e+00
2.140000000000000124e+00 1.766598818752509459e+00
2.160000000000000142e+00 1.755632021288404232e+00
2.180000000000000160e+00 1.744733242907402282e+00
2.200000000000000178e+00 1.733902554522680717e+00
2.220000000000000195e+00 1.723140014892357463e+00
2.240000000000000213e+00 1.712445650327345747e+00
2.260000000000000231e+00 1.701819476592348224e+00
2.280000000000000249e+00 1.691261478546206343e+00
2.300000000000000266e+00 1.680771632035865437e+00
2.319999999999999840e+00 1.670349883478198016e+00
2.339999999999999858e+00 1.659996171737668336e+00
2.359999999999999876e+00 1.649710407659910505e+00
2.379999999999999893e+00 1.639492495923960291e+00
2.399999999999999911e+00 1.629342314536999625e+00
2.419999999999999929e+00 1.619259736652197912e+00
2.439999999999999947e+00 1.609244610035193812e+00
2.459999999999999964e+00 1.599296778838681155e+00
2.479999999999999982e+00 1.589416063050364203e+00
2.500000000000000000e+00 1.579602280215545829e+00
2.520000000000000018e+00 1.569855224877344302e+00
2.540000000000000036e+00 1.560174690238601336e+00
2.560000000000000053e+00 1.550560447604329539e+00
2.580000000000000071e+00 1.541012267974356309e+00
2.600000000000000089e+00 1.531529901498895230e+00
2.620000000000000107e+00 1.522113098993412184e+00
2.640000000000000124e+00 1.512761591417412399e+00
2.660000000000000142e+00 1.503475111303054668e+00
2.680000000000000160e+00 1.494253372268128821e+00
2.700000000000000178e+00 1.485096090349953490e+00
2.720000000000000195e+00 1.476002963562739190e+00
2.740000000000000213e+00 1.466973693128372114e+00
2.760000000000000231e+00 1.458007963089123615e+00
2.780000000000000249e+00 1.449105461426915653e+00
2.800000000000000266e+00 1.440265859741608701e+00
2.819999999999999840e+00 1.431488834250371989e+00
2.839999999999999858e+00 1.422774045542480881e+00
2.859999999999999876e+00 1.414121159450425047e+00
2.879999999999999893e+00 1.405529826891409595e+00
2.899999999999999911e+00 1.396999704601865178e+00
2.919999999999999929e+00 1.388530435076507974e+00
2.939999999999999947e+00 1.380121667157871990e+00
2.959999999999999964e+00 1.371773036083097086e+00
2.979999999999999982e+00 1.363484183920150361e+00
3.000000000000000000e+00 1.355254739733071423e+00
3.020000000000000018e+00 1.347084339856548851e+00
3.040000000000000036e+00 1.338972608189691771e+00
3.060000000000000053e+00 1.330919176300602302e+00
3.080000000000000071e+00 1.322923663859334242e+00
3.100000000000000089e+00 1.314985698564074212e+00
3.120000000000000107e+00 1.307104896723279452e+00
3.140000000000000124e+00 1.299280882995128783e+00
3.160000000000000142e+00 1.291513271129312246e+00
3.180000000000000160e+00 1.283801683511408553e+00
3.200000000000000178e+00 1.276145732074187578e+00
3.220000000000000195e+00 1.268545037638560968e+00
3.240000000000000213e+00 1.260999211004743215e+00
3.260000000000000231e+00 1.253507872081412344e+00
3.280000000000000249e+00 1.246070631166485976e+00
3.300000000000000266e+00 1.238687107856123237e+00
3.320000000000000284e+00 1.231356912525313874e+00
3.339999999999999858e+00 1.224079665008366291e+00
3.359999999999999876e+00 1.216854976288925139e+00
3.379999999999999893e+00 1.209682466943583279e+00
3.399999999999999911e+00 1.202561749051381357e+00
3.419999999999999929e+00 1.195492444392179054e+00
3.439999999999999947e+00 1.188474166585119729e+00
3.459999999999999964e+00 1.181506539033427616e+00
3.479999999999999982e+00 1.174589177301704979e+00
3.500000000000000000e+00 1.167721706798822146e+00
3.520000000000000018e+00 1.160903745403395027e+00
3.540000000000000036e+00 1.154134920876434878e+00
3.560000000000000053e+00 1.147414853744736618e+00
3.580000000000000071e+00 1.140743174434953877e+00
3.600000000000000089e+00 1.134119506424119184e+00
3.620000000000000107e+00 1.127543483086840936e+00
3.640000000000000124e+00 1.121014731122507380e+00
3.660000000000000142e+00 1.114532887107333892e+00
3.680000000000000160e+00 1.108097581207304838e+00
3.700000000000000178e+00 1.101708453426784695e+00
3.720000000000000195e+00 1.095365137616640894e+00
3.740000000000000213e+00 1.089067277411149837e+00
3.760000000000000231e+00 1.082814510540217157e+00
3.780000000000000249e+00 1.076606484446349432e+00
3.800000000000000266e+00 1.070442840910241111e+00
3.820000000000000284e+00 1.064323231339585174e+00
3.839999999999999858e+00 1.058247301716827682e+00
3.859999999999999876e+00 1.052214707551623718e+00
3.879999999999999893e+00 1.046225099159862504e+00
3.899999999999999911e+00 1.040278136271607590e+00
3.919999999999999929e+00 1.034373473650054720e+00
3.939999999999999947e+00 1.028510775346805461e+00
3.959999999999999964e+00 1.022689700669738633e+00
3.979999999999999982e+00 1.016909918077472330e+00
4.000000000000000000e+00 1.011171091504714958e+00
4.020000000000000462e+00 1.005472893887811026e+00
4.040000000000000036e+00 9.998149938563807293e-01
4.060000000000000497e+00 9.941970688819082858e-01
4.080000000000000071e+00 9.886187923440816760e-01
4.099999999999999645e+00 9.830798462943769467e-01
4.120000000000000107e+00 9.775799089057950475e-01
4.139999999999999680e+00 9.721186668434205203e-01
4.160000000000000142e+00 9.666958031058777712e-01
4.179999999999999716e+00 9.613110089948727621e-01
4.200000000000000178e+00 9.559639723569179903e-01
4.219999999999999751e+00 9.506543891439275251e-01
4.240000000000000213e+00 9.453819520633875984e-01
4.259999999999999787e+00 9.401463617220805480e-01
4.280000000000000249e+00 9.349473156931528139e-01
4.299999999999999822e+00 9.297845192350626675e-01
4.320000000000000284e+00 9.246576747836342536e-01
4.339999999999999858e+00 9.195664922383588458e-01
4.360000000000000320e+00 9.145106788877696014e-01
4.379999999999999893e+00 9.094899492552821485e-01
4.400000000000000355e+00 9.045040154658262610e-01
4.419999999999999929e+00 8.995525966434388954e-01
4.440000000000000391e+00 8.946354097273848671e-01
4.459999999999999964e+00 8.897521784137232270e-01
4.480000000000000426e+00 8.849026244287987453e-01
4.500000000000000000e+00 8.800864760070232773e-01
4.520000000000000462e+00 8.753034596298614467e-01
4.540000000000000036e+00 8.705533080321379291e-01
4.560000000000000497e+00 8.658357524142746842e-01
4.580000000000000071e+00 8.611505299694388604e-01
4.600000000000000533e+00 8.564973765770684810e-01
4.620000000000000107e+00 8.518760338432044277e-01
4.639999999999999680e+00 8.472862422829969820e-01
4.660000000000000142e+00 8.427277478665978760e-01
4.679999999999999716e+00 8.382002956985683539e-01
4.700000000000000178e+00 8.337036360617566810e-01
4.719999999999999751e+00 8.292375186012063137e-01
4.740000000000000213e+00 8.248016978584419290e-01
4.759999999999999787e+00 8.203959279677455196e-01
4.780000000000000249e+00 8.160199676732935448e-01
4.799999999999999822e+00 8.116735755453348133e-01
4.820000000000000284e+00 8.073565144726840836e-01
4.839999999999999858e+00 8.030685474065506479e-01
4.860000000000000320e+00 7.988094413209005928e-01
4.879999999999999893e+00 7.945789634914102173e-01
4.900000000000000355e+00 7.903768849162229326e-01
4.919999999999999929e+00 7.862029771377326837e-01
4.940000000000000391e+00 7.820570151162891115e-01
4.959999999999999964e+00 7.779387746022211614e-01
4.980000000000000426e+00 7.738480344550450196e-01
5.000000000000000000e+00 7.697845745733885581e-01
5.020000000000000462e+00 7.657481776523095141e-01
5.040000000000000036e+00 7.617386276784396948e-01
5.060000000000000497e+00 7.577557111180367455e-01
5.080000000000000071e+00 7.537992159849530305e-01
5.100000000000000533e+00 7.498689324520353416e-01
5.120000000000000107e+00 7.459646524992230576e-01
5.139999999999999680e+00 7.420861699409415646e-01
5.160000000000000142e+00 7.382332806618823184e-01
5.179999999999999716e+00 7.344057820530389691e-01
5.200000000000000178e+00 7.306034738424425079e-01
5.219999999999999751e+00 7.268261569324986349e-01
5.240000000000000213e+00 7.230736348331998631e-01
5.259999999999999787e+00 7.193457118934382111e-01
5.280000000000000249e+00 7.156421953439279227e-01
5.299999999999999822e+00 7.119628929151822216e-01
5.320000000000000284e+00 7.083076154976331029e-01
5.339999999999999858e+00 7.046761741389730993e-01
5.360000000000000320e+00 7.010683833286711630e-01
5.379999999999999893e+00 6.974840573673736221e-01
5.400000000000000355e+00 6.939230142833108239e-01
5.419999999999999929e+00 6.903850715664360260e-01
5.440000000000000391e+00 6.868700507239288156e-01
5.459999999999999964e+00 6.833777723717631147e-01
5.480000000000000426e+00 6.799080614367893904e-01
5.500000000000000000e+00 6.764607415984208449e-01
5.520000000000000462e+00 6.730356411444808895e-01
5.540000000000000036e+00 6.696325867557070266e-01
5.560000000000000497e+00 6.662514100228421610e-01
5.580000000000000071e+00 6.628919405666305886e-01
5.600000000000000533e+00 6.595540132233576047e-01
5.620000000000000107e+00 6.562374604930113486e-01
5.639999999999999680e+00 6.529421204007653801e-01
5.660000000000000142e+00 6.496678282659660297e-01
5.679999999999999716e+00 6.464144252467712848e-01
5.700000000000000178e+00 6.431817494226128584e-01
5.719999999999999751e+00 6.399696450295181416e-01
5.740000000000000213e+00 6.367779528486701146e-01
5.759999999999999787e+00 6.336065201396537949e-01
5.780000000000000249e+00 6.304551903277305636e-01
5.799999999999999822e+00 6.273238136425639544e-01
5.820000000000000284e+00 6.242122360968076489e-01
5.839999999999999858e+00 6.211203108375674686e-01
5.860000000000000320e+00 6.180478864088865265e-01
5.879999999999999893e+00 6.149948188235538904e-01
5.900000000000000355e+00 6.119609591020120920e-01
5.919999999999999929e+00 6.089461660718414882e-01
5.940000000000000391e+00 6.059502931756096666e-01
5.959999999999999964e+00 6.029732020056848274e-01
5.980000000000000426e+00 6.000147483735100984e-01
6.000000000000000000e+00 5.970747965871322505e-01
6.020000000000000462e+00 5.941532047743487421e-01
6.040000000000000036e+00 5.912498399106705937e-01
6.060000000000000497e+00 5.883645623887605591e-01
6.080000000000000071e+00 5.854972418042843074e-01
6.100000000000000533e+00 5.826477407640106021e-01
6.120000000000000107e+00 5.798159314373499962e-01
6.140000000000000568e+00 5.770016785954539262e-01
6.160000000000000142e+00 5.742048569359692323e-01
6.179999999999999716e+00 5.714253333454270001e-01
6.200000000000000178e+00 5.686629850051079238e-01
6.219999999999999751e+00 5.659176808689462268e-01
6.240000000000000213e+00 5.631893005581437572e-01
6.259999999999999787e+00 5.604777150467836755e-01
6.280000000000000249e+00 5.577828063531702352e-01
6.299999999999999822e+00 5.551044474252908589e-01
6.320000000000000284e+00 5.524425226366206365e-01
6.339999999999999858e+00 5.497969068635079060e-01
6.360000000000000320e+00 5.471674867935454323e-01
6.379999999999999893e+00 5.445541391869006542e-01
6.400000000000000355e+00 5.419567530051049298e-01
6.419999999999999929e+00 5.393752068482817741e-01
6.440000000000000391e+00 5.368093919125813684e-01
6.459999999999999964e+00 5.342591885952068242e-01
6.480000000000000426e+00 5.317244902884686875e-01
6.500000000000000000e+00 5.292051791444243314e-01
6.520000000000000462e+00 5.267011507139275350e-01
6.540000000000000036e+00 5.242122888626293831e-01
6.560000000000000497e+00 5.217384912631470861e-01
6.580000000000000071e+00 5.192796434540963846e-01
6.600000000000000533e+00 5.168356451939040141e-01
6.620000000000000107e+00 5.144063836544640056e-01
6.640000000000000568e+00 5.119917606448696201e-01
6.660000000000000142e+00 5.095916649312046687e-01
6.679999999999999716e+00 5.072060003388894067e-01
6.700000000000000178e+00 5.048346571900348412e-01
6.719999999999999751e+00 5.024775412928390583e-01
6.740000000000000213e+00 5.001345444878485536e-01
6.759999999999999787e+00 4.978055745332679027e-01
6.780000000000000249e+00 4.954905247513799460e-01
6.799999999999999822e+00 4.931893048183974004e-01
6.820000000000000284e+00 4.909018095021794870e-01
6.839999999999999858e+00 4.886279503657064982e-01
6.860000000000000320e+00 4.863676235871246534e-01
6.879999999999999893e+00 4.841207425856741686e-01
6.900000000000000355e+00 4.818872049150235148e-01
6.919999999999999929e+00 4.796669258208999254e-01
6.940000000000000391e+00 4.774598041985613772e-01
6.959999999999999964e+00 4.752657570911669183e-01
6.980000000000000426e+00 4.730846847021182300e-01
7.000000000000000000e+00 4.709165058436648454e-01
7.020000000000000462e+00 4.687611219947185326e-01
7.040000000000000036e+00 4.666184537089639872e-01
7.060000000000000497e+00 4.644884037086515205e-01
7.080000000000000071e+00 4.623708942619277340e-01
7.100000000000000533e+00 4.602658293029925907e-01
7.120000000000000107e+00 4.581731327881573002e-01
7.140000000000000568e+00 4.560927098326086893e-01
7.160000000000000142e+00 4.540244860551797546e-01
7.179999999999999716e+00 4.519683677218461759e-01
7.200000000000000178e+00 4.499242820889634009e-01
7.219999999999999751e+00 4.478921365434910817e-01
7.240000000000000213e+00 4.458718599549493788e-01
7.259999999999999787e+00 4.438633608022151122e-01
7.280000000000000249e+00 4.418665695442302033e-01
7.299999999999999822e+00 4.398813957230842675e-01
7.320000000000000284e+00 4.379077713640132652e-01
7.339999999999999858e+00 4.359456070443378239e-01
7.360000000000000320e+00 4.339948363330580205e-01
7.379999999999999893e+00 4.320553708150688954e-01
7.400000000000000355e+00 4.301271455811968014e-01
7.419999999999999929e+00 4.282100731969479823e-01
7.440000000000000391e+00 4.263040902536117116e-01
7.459999999999999964e+00 4.244091102706473717e-01
7.480000000000000426e+00 4.225250713190136787e-01
7.500000000000000000e+00 4.206518878461347755e-01
7.520000000000000462e+00 4.187894993823945144e-01
7.540000000000000036e+00 4.169378212774760284e-01
7.560000000000000497e+00 4.150967945014971683e-01
7.580000000000000071e+00 4.132663352813256141e-01
7.600000000000000533e+00 4.114463860076518209e-01
7.620000000000000107e+00 4.096368637597166962e-01
7.640000000000000568e+00 4.078377123301544782e-01
7.660000000000000142e+00 4.060488496263845448e-01
7.679999999999999716e+00 4.042702208248661333e-01
7.700000000000000178e+00 4.025017446372227692e-01
7.719999999999999751e+00 4.007433676061310512e-01
7.740000000000000213e+00 3.989950092240518997e-01
7.759999999999999787e+00 3.972566173827666303e-01
7.780000000000000249e+00 3.955281123323995951e-01
7.799999999999999822e+00 3.938094432972090719e-01
7.820000000000000284e+00 3.921005312623985217e-01
7.839999999999999858e+00 3.904013267685566002e-01
7.860000000000000320e+00 3.887117515135407042e-01
7.879999999999999893e+00 3.870317573385976817e-01
