# Electrodo circular de radio 6 mm y espesor 710.0 um.
# Volumen de simulacion (convencion z,y,x):
# N: 1024 x 1024 x 1024 | voxelSize:  0.02mm x 0.02mm x 0.02mm | FOV:  20.48mm x 20.48mm x 20.48mm
# 
# z [mm]		 delta[ppm]
0.000000000000000000e+00 2.578811048278946583e+00
2.000000000000000042e-02 2.575156211800782469e+00
4.000000000000000083e-02 2.571393928643217475e+00
5.999999999999999778e-02 2.567525132098617213e+00
8.000000000000000167e-02 2.563550789132230445e+00
1.000000000000000056e-01 2.559471897956885122e+00
1.199999999999999956e-01 2.555289470328555801e+00
1.400000000000000133e-01 2.551004542766561745e+00
1.600000000000000033e-01 2.546618168183026665e+00
1.799999999999999933e-01 2.542131422120364359e+00
2.000000000000000111e-01 2.537545396006141374e+00
2.200000000000000011e-01 2.532861202571441428e+00
2.399999999999999911e-01 2.528079969171651786e+00
2.600000000000000089e-01 2.523202843231151071e+00
2.800000000000000266e-01 2.518230985432192259e+00
2.999999999999999889e-01 2.513165575294574960e+00
3.200000000000000067e-01 2.508007804205738989e+00
3.400000000000000244e-01 2.502758881180029871e+00
3.599999999999999867e-01 2.497420025672018262e+00
3.800000000000000044e-01 2.491992473539849318e+00
4.000000000000000222e-01 2.486477469658464834e+00
4.199999999999999845e-01 2.480876274097860268e+00
4.400000000000000022e-01 2.475190154506585305e+00
4.600000000000000200e-01 2.469420392514473317e+00
4.799999999999999822e-01 2.463568275905851479e+00
5.000000000000000000e-01 2.457635105249639462e+00
5.200000000000000178e-01 2.451622185845834689e+00
5.400000000000000355e-01 2.445530834586767899e+00
5.600000000000000533e-01 2.439362371694309140e+00
5.799999999999999600e-01 2.433118127812337939e+00
5.999999999999999778e-01 2.426799435525297532e+00
6.199999999999999956e-01 2.420407636682881058e+00
6.400000000000000133e-01 2.413944073715123650e+00
6.600000000000000311e-01 2.407410097187913767e+00
6.800000000000000488e-01 2.400807056909517012e+00
7.000000000000000666e-01 2.394136309716246913e+00
7.199999999999999734e-01 2.387399210383720494e+00
7.399999999999999911e-01 2.380597119640403658e+00
7.600000000000000089e-01 2.373731394881176016e+00
7.800000000000000266e-01 2.366803398406954084e+00
8.000000000000000444e-01 2.359814487952387907e+00
8.200000000000000622e-01 2.352766025148576912e+00
8.399999999999999689e-01 2.345659365864289470e+00
8.599999999999999867e-01 2.338495868889069129e+00
8.800000000000000044e-01 2.331276886098687662e+00
9.000000000000000222e-01 2.324003771355028558e+00
9.200000000000000400e-01 2.316677870496411273e+00
9.400000000000000577e-01 2.309300530450861810e+00
9.599999999999999645e-01 2.301873089061067468e+00
9.799999999999999822e-01 2.294396884406880499e+00
1.000000000000000000e+00 2.286873244466491872e+00
1.020000000000000018e+00 2.279303496644086824e+00
1.040000000000000036e+00 2.271688957276294385e+00
1.060000000000000053e+00 2.264030941360374083e+00
1.080000000000000071e+00 2.256330751908139032e+00
1.100000000000000089e+00 2.248589689870055697e+00
1.120000000000000107e+00 2.240809043345164842e+00
1.140000000000000124e+00 2.232990097695926934e+00
1.159999999999999920e+00 2.225134124616910292e+00
1.179999999999999938e+00 2.217242392435254228e+00
1.199999999999999956e+00 2.209316155046156638e+00
1.219999999999999973e+00 2.201356662393388675e+00
1.239999999999999991e+00 2.193365149274751680e+00
1.260000000000000009e+00 2.185342845997057637e+00
1.280000000000000027e+00 2.177290967059219540e+00
1.300000000000000044e+00 2.169210721975743716e+00
1.320000000000000062e+00 2.161103303840976597e+00
1.340000000000000080e+00 2.152969900315071961e+00
1.360000000000000098e+00 2.144811682076826820e+00
1.380000000000000115e+00 2.136629813965788216e+00
1.400000000000000133e+00 2.128425443327476962e+00
1.419999999999999929e+00 2.120199711305264856e+00
1.439999999999999947e+00 2.111953741085185854e+00
1.459999999999999964e+00 2.103688649330925919e+00
1.479999999999999982e+00 2.095405534332299702e+00
1.500000000000000000e+00 2.087105487576641494e+00
1.520000000000000018e+00 2.078789581808015985e+00
1.540000000000000036e+00 2.070458882728042571e+00
1.560000000000000053e+00 2.062114436970174935e+00
1.580000000000000071e+00 2.053757283922968302e+00
1.600000000000000089e+00 2.045388443626382280e+00
1.620000000000000107e+00 2.037008928710286604e+00
1.640000000000000124e+00 2.028619732217352922e+00
1.660000000000000142e+00 2.020221839649555928e+00
1.679999999999999938e+00 2.011816216724545026e+00
1.699999999999999956e+00 2.003403821522737438e+00
1.719999999999999973e+00 1.994985592181956369e+00
1.739999999999999991e+00 1.986562459137644954e+00
1.760000000000000009e+00 1.978135332762680942e+00
1.780000000000000027e+00 1.969705115693081376e+00
1.800000000000000044e+00 1.961272690418013998e+00
1.820000000000000062e+00 1.952838931683355428e+00
1.840000000000000080e+00 1.944404694038815107e+00
1.860000000000000098e+00 1.935970824311560312e+00
1.880000000000000115e+00 1.927538149115689992e+00
1.900000000000000133e+00 1.919107487388151290e+00
1.919999999999999929e+00 1.910679637867484404e+00
1.939999999999999947e+00 1.902255391684147368e+00
1.959999999999999964e+00 1.893835519813992452e+00
1.979999999999999982e+00 1.885420785715054004e+00
2.000000000000000000e+00 1.877011932762781443e+00
2.020000000000000018e+00 1.868609696925284114e+00
2.040000000000000036e+00 1.860214794185988341e+00
2.060000000000000053e+00 1.851827933249316827e+00
2.080000000000000071e+00 1.843449802957836781e+00
2.100000000000000089e+00 1.835081085020298319e+00
2.120000000000000107e+00 1.826722441429159849e+00
2.140000000000000124e+00 1.818374527202865076e+00
2.160000000000000142e+00 1.810037977810920129e+00
2.180000000000000160e+00 1.801713421922247038e+00
2.200000000000000178e+00 1.793401468843903279e+00
2.220000000000000195e+00 1.785102721267334269e+00
2.240000000000000213e+00 1.776817762728014838e+00
2.260000000000000231e+00 1.768547170341380426e+00
2.280000000000000249e+00 1.760291502289660803e+00
2.300000000000000266e+00 1.752051310539278983e+00
2.319999999999999840e+00 1.743827128362261281e+00
2.339999999999999858e+00 1.735619483026829002e+00
2.359999999999999876e+00 1.727428883359863443e+00
2.379999999999999893e+00 1.719255832402439177e+00
2.399999999999999911e+00 1.711100815020808463e+00
2.419999999999999929e+00 1.702964310518591651e+00
2.439999999999999947e+00 1.694846780302950107e+00
2.459999999999999964e+00 1.686748680445129045e+00
2.479999999999999982e+00 1.678670449409402243e+00
2.500000000000000000e+00 1.670612520553667268e+00
2.520000000000000018e+00 1.662575309927985190e+00
2.540000000000000036e+00 1.654559228706918406e+00
2.560000000000000053e+00 1.646564671065356089e+00
2.580000000000000071e+00 1.638592026534258617e+00
2.600000000000000089e+00 1.630641667960762042e+00
2.620000000000000107e+00 1.622713963779011559e+00
2.640000000000000124e+00 1.614809266062331883e+00
2.660000000000000142e+00 1.606927922700801314e+00
2.680000000000000160e+00 1.599070265552644088e+00
2.700000000000000178e+00 1.591236622520205479e+00
2.720000000000000195e+00 1.583427305808441377e+00
2.740000000000000213e+00 1.575642623890953553e+00
2.760000000000000231e+00 1.567882869882869068e+00
2.780000000000000249e+00 1.560148333388591713e+00
2.800000000000000266e+00 1.552439288997028211e+00
2.819999999999999840e+00 1.544756008002726944e+00
2.839999999999999858e+00 1.537098747030856360e+00
2.859999999999999876e+00 1.529467759623382328e+00
2.879999999999999893e+00 1.521863285001863630e+00
2.899999999999999911e+00 1.514285559510306411e+00
2.919999999999999929e+00 1.506734805523327614e+00
2.939999999999999947e+00 1.499211242737314542e+00
2.959999999999999964e+00 1.491715077232100395e+00
2.979999999999999982e+00 1.484246512602087176e+00
3.000000000000000000e+00 1.476805739179063659e+00
3.020000000000000018e+00 1.469392944994948325e+00
3.040000000000000036e+00 1.462008305173949640e+00
3.060000000000000053e+00 1.454651992718572373e+00
3.080000000000000071e+00 1.447324168078873097e+00
3.100000000000000089e+00 1.440024989753376783e+00
3.120000000000000107e+00 1.432754604043682489e+00
3.140000000000000124e+00 1.425513155461947568e+00
3.160000000000000142e+00 1.418300776678684372e+00
3.180000000000000160e+00 1.411117598728438560e+00
3.200000000000000178e+00 1.403963741159112821e+00
3.220000000000000195e+00 1.396839322027503272e+00
3.240000000000000213e+00 1.389744448258027232e+00
3.260000000000000231e+00 1.382679225419777724e+00
3.280000000000000249e+00 1.375643748303051028e+00
3.300000000000000266e+00 1.368638110469546865e+00
3.320000000000000284e+00 1.361662395054675789e+00
3.339999999999999858e+00 1.354716684082559519e+00
3.359999999999999876e+00 1.347801049502537207e+00
3.379999999999999893e+00 1.340915562260608151e+00
3.399999999999999911e+00 1.334060283578191619e+00
3.419999999999999929e+00 1.327235273771649071e+00
3.439999999999999947e+00 1.320440583781742117e+00
3.459999999999999964e+00 1.313676263732915350e+00
3.479999999999999982e+00 1.306942354721535526e+00
3.500000000000000000e+00 1.300238897106552605e+00
3.520000000000000018e+00 1.293565922565043325e+00
3.540000000000000036e+00 1.286923462105912686e+00
3.560000000000000053e+00 1.280311538400851212e+00
3.580000000000000071e+00 1.273730173512707120e+00
3.600000000000000089e+00 1.267179381510426639e+00
3.620000000000000107e+00 1.260659175903734663e+00
3.640000000000000124e+00 1.254169562550204731e+00
3.660000000000000142e+00 1.247710546787913488e+00
3.680000000000000160e+00 1.241282126643206363e+00
3.700000000000000178e+00 1.234884299652933892e+00
3.720000000000000195e+00 1.228517056381149386e+00
3.740000000000000213e+00 1.222180386922574691e+00
3.760000000000000231e+00 1.215874274736782779e+00
3.780000000000000249e+00 1.209598702824546512e+00
3.800000000000000266e+00 1.203353647887749345e+00
3.820000000000000284e+00 1.197139086170238009e+00
3.839999999999999858e+00 1.190954987952085320e+00
3.859999999999999876e+00 1.184801323046561050e+00
3.879999999999999893e+00 1.178678055637018440e+00
3.899999999999999911e+00 1.172585149421611961e+00
3.919999999999999929e+00 1.166522562801434626e+00
3.939999999999999947e+00 1.160490253664601568e+00
3.959999999999999964e+00 1.154488174933928413e+00
3.979999999999999982e+00 1.148516278982006478e+00
4.000000000000000000e+00 1.142574513547074622e+00
4.020000000000000462e+00 1.136662825770673235e+00
4.040000000000000036e+00 1.130781158490031801e+00
4.060000000000000497e+00 1.124929453889934150e+00
4.080000000000000071e+00 1.119107650180263924e+00
4.099999999999999645e+00 1.113315684853687815e+00
4.120000000000000107e+00 1.107553491756685160e+00
4.139999999999999680e+00 1.101821003944655430e+00
4.160000000000000142e+00 1.096118151155122789e+00
4.179999999999999716e+00 1.090444862251836566e+00
4.200000000000000178e+00 1.084801063108508323e+00
4.219999999999999751e+00 1.079186678633508700e+00
4.240000000000000213e+00 1.073601631072820028e+00
4.259999999999999787e+00 1.068045841606902524e+00
4.280000000000000249e+00 1.062519229081228422e+00
4.299999999999999822e+00 1.057021711166909128e+00
4.320000000000000284e+00 1.051553203527521907e+00
4.339999999999999858e+00 1.046113620535020328e+00
4.360000000000000320e+00 1.040702874881297424e+00
4.379999999999999893e+00 1.035320877840919973e+00
4.400000000000000355e+00 1.029967539336119620e+00
4.419999999999999929e+00 1.024642767737935500e+00
4.440000000000000391e+00 1.019346470393018844e+00
4.459999999999999964e+00 1.014078552954740697e+00
4.480000000000000426e+00 1.008838920380566995e+00
4.500000000000000000e+00 1.003627475784590217e+00
4.520000000000000462e+00 9.984441219139581492e-01
4.540000000000000036e+00 9.932887595143797821e-01
4.560000000000000497e+00 9.881612892942988058e-01
4.580000000000000071e+00 9.830616097948856602e-01
4.600000000000000533e+00 9.779896198504499649e-01
4.620000000000000107e+00 9.729452159543929834e-01
4.639999999999999680e+00 9.679282952246369698e-01
4.660000000000000142e+00 9.629387522570049818e-01
4.679999999999999716e+00 9.579764826041609060e-01
4.700000000000000178e+00 9.530413791078874430e-01
4.719999999999999751e+00 9.481333359003402128e-01
4.740000000000000213e+00 9.432522442066376689e-01
4.759999999999999787e+00 9.383979968769757818e-01
4.780000000000000249e+00 9.335704836509651772e-01
4.799999999999999822e+00 9.287695962294207908e-01
4.820000000000000284e+00 9.239952229918499960e-01
4.839999999999999858e+00 9.192472546164833780e-01
4.860000000000000320e+00 9.145255782423169499e-01
4.879999999999999893e+00 9.098300836462176466e-01
4.900000000000000355e+00 9.051606568408945286e-01
4.919999999999999929e+00 9.005171868176953254e-01
4.940000000000000391e+00 8.958995585718436683e-01
4.959999999999999964e+00 8.913076604198113539e-01
4.980000000000000426e+00 8.867413764431593126e-01
5.000000000000000000e+00 8.822005943891200186e-01
5.020000000000000462e+00 8.776851975243579185e-01
5.040000000000000036e+00 8.731950731276826305e-01
5.060000000000000497e+00 8.687301037450033681e-01
5.080000000000000071e+00 8.642901762828668621e-01
5.100000000000000533e+00 8.598751726558719888e-01
5.120000000000000107e+00 8.554849794899933579e-01
5.139999999999999680e+00 8.511194781536715048e-01
5.160000000000000142e+00 8.467785550796838034e-01
5.179999999999999716e+00 8.424620911711110383e-01
5.200000000000000178e+00 8.381699727507615494e-01
5.219999999999999751e+00 8.339020803331910203e-01
5.240000000000000213e+00 8.296583002104773730e-01
5.259999999999999787e+00 8.254385125814348578e-01
5.280000000000000249e+00 8.212426037828111092e-01
5.299999999999999822e+00 8.170704537668149747e-01
5.320000000000000284e+00 8.129219489865754378e-01
5.339999999999999858e+00 8.087969692130750898e-01
5.360000000000000320e+00 8.046954010840058347e-01
5.379999999999999893e+00 8.006171242511258557e-01
5.400000000000000355e+00 7.965620256014591671e-01
5.419999999999999929e+00 7.925299847260818265e-01
5.440000000000000391e+00 7.885208888228536495e-01
5.459999999999999964e+00 7.845346174776092196e-01
5.480000000000000426e+00 7.805710582574099110e-01
5.500000000000000000e+00 7.766300907950792753e-01
5.520000000000000462e+00 7.727116030822451798e-01
5.540000000000000036e+00 7.688154748480907630e-01
5.560000000000000497e+00 7.649415945612896284e-01
5.580000000000000071e+00 7.610898420938088105e-01
5.600000000000000533e+00 7.572601064410642291e-01
5.620000000000000107e+00 7.534522676616127734e-01
5.639999999999999680e+00 7.496662153246730353e-01
5.660000000000000142e+00 7.459018297164581313e-01
5.679999999999999716e+00 7.421590010245079361e-01
5.700000000000000178e+00 7.384376098013551992e-01
5.719999999999999751e+00 7.347375468949431943e-01
5.740000000000000213e+00 7.310586931602875982e-01
5.759999999999999787e+00 7.274009401454827328e-01
5.780000000000000249e+00 7.237641690419764906e-01
5.799999999999999822e+00 7.201482721355367822e-01
5.820000000000000284e+00 7.165531309856920661e-01
5.839999999999999858e+00 7.129786386512663166e-01
5.860000000000000320e+00 7.094246770894920839e-01
5.879999999999999893e+00 7.058911401655968421e-01
5.900000000000000355e+00 7.023779102620217873e-01
5.919999999999999929e+00 6.988848820817833429e-01
5.940000000000000391e+00 6.954119384581963770e-01
5.959999999999999964e+00 6.919589749615946417e-01
5.980000000000000426e+00 6.885258748998691614e-01
6.000000000000000000e+00 6.851125347384104947e-01
6.020000000000000462e+00 6.817188382817249703e-01
6.040000000000000036e+00 6.783446829162881331e-01
6.060000000000000497e+00 6.749899529634600936e-01
6.080000000000000071e+00 6.716545467552136328e-01
6.100000000000000533e+00 6.683383491484626848e-01
6.120000000000000107e+00 6.650412594435385349e-01
6.140000000000000568e+00 6.617631630499747342e-01
6.160000000000000142e+00 6.585039602578217632e-01
6.179999999999999716e+00 6.552635370449105823e-01
6.200000000000000178e+00 6.520417947109766743e-01
6.219999999999999751e+00 6.488386198162963137e-01
6.240000000000000213e+00 6.456539146888973235e-01
6.259999999999999787e+00 6.424875664844177381e-01
6.280000000000000249e+00 6.393394785765006416e-01
6.299999999999999822e+00 6.362095387276447411e-01
6.320000000000000284e+00 6.330976513732106126e-01
6.339999999999999858e+00 6.300037048929404415e-01
6.360000000000000320e+00 6.269276047988416867e-01
6.379999999999999893e+00 6.238692400969960694e-01
6.400000000000000355e+00 6.208285173898840936e-01
6.419999999999999929e+00 6.178053263179937860e-01
6.440000000000000391e+00 6.147995745870490358e-01
6.459999999999999964e+00 6.118111524788445443e-01
6.480000000000000426e+00 6.088399688141065136e-01
6.500000000000000000e+00 6.058859145219147591e-01
6.520000000000000462e+00 6.029488995488065939e-01
6.540000000000000036e+00 6.000288154760395898e-01
6.560000000000000497e+00 5.971255733858620296e-01
6.580000000000000071e+00 5.942390655157816504e-01
6.600000000000000533e+00 5.913692040928023586e-01
6.620000000000000107e+00 5.885158820137540436e-01
6.640000000000000568e+00 5.856790126586184364e-01
6.660000000000000142e+00 5.828584895858902604e-01
6.679999999999999716e+00 5.800542273359721168e-01
6.700000000000000178e+00 5.772661201304482015e-01
6.719999999999999751e+00 5.744940836768589465e-01
6.740000000000000213e+00 5.717380128606430745e-01
6.759999999999999787e+00 5.689978245624960351e-01
6.780000000000000249e+00 5.662734143316405788e-01
6.799999999999999822e+00 5.635647002272846651e-01
6.820000000000000284e+00 5.608715784617744893e-01
6.839999999999999858e+00 5.581939682775670653e-01
6.860000000000000320e+00 5.555317665487049528e-01
6.879999999999999893e+00 5.528848937050399037e-01
6.900000000000000355e+00 5.502532472803622898e-01
6.919999999999999929e+00 5.476367488955111718e-01
6.940000000000000391e+00 5.450352967413716332e-01
6.959999999999999964e+00 5.424488136328270427e-01
6.980000000000000426e+00 5.398771984147457959e-01
7.000000000000000000e+00 5.373203750986313976e-01
7.020000000000000462e+00 5.347782431795677915e-01
7.040000000000000036e+00 5.322507278677863773e-01
7.060000000000000497e+00 5.297377293044164270e-01
7.080000000000000071e+00 5.272391739000817923e-01
7.100000000000000533e+00 5.247549624371951049e-01
7.120000000000000107e+00 5.222850225280289971e-01
7.140000000000000568e+00 5.198292555911585566e-01
7.160000000000000142e+00 5.173875904413792748e-01
7.179999999999999716e+00 5.149599291277566770e-01
7.200000000000000178e+00 5.125462016681147093e-01
7.219999999999999751e+00 5.101463107360412197e-01
7.240000000000000213e+00 5.077601875525575847e-01
7.259999999999999787e+00 5.053877354092898289e-01
7.280000000000000249e+00 5.030288867303108757e-01
7.299999999999999822e+00 5.006835454185369905e-01
7.320000000000000284e+00 4.983516451006527181e-01
7.339999999999999858e+00 4.960330902836581624e-01
7.360000000000000320e+00 4.937278157961319525e-01
7.379999999999999893e+00 4.914357267417205355e-01
7.400000000000000355e+00 4.891567591499220713e-01
7.419999999999999929e+00 4.868908187131632537e-01
7.440000000000000391e+00 4.846378426606606782e-01
7.459999999999999964e+00 4.823977372655590679e-01
7.480000000000000426e+00 4.801704409553685382e-01
7.500000000000000000e+00 4.779558605754957723e-01
7.520000000000000462e+00 4.757539357501154309e-01
7.540000000000000036e+00 4.735645738882951483e-01
7.560000000000000497e+00 4.713877158090605812e-01
7.580000000000000071e+00 4.692232694761467315e-01
7.600000000000000533e+00 4.670711769014488368e-01
7.620000000000000107e+00 4.649313465942750412e-01
7.640000000000000568e+00 4.628037217572590900e-01
7.660000000000000142e+00 4.606882114358145097e-01
7.679999999999999716e+00 4.585847600210418706e-01
7.700000000000000178e+00 4.564932770849185473e-01
7.719999999999999751e+00 4.544137082046041942e-01
7.740000000000000213e+00 4.523459634687675424e-01
7.759999999999999787e+00 4.502899896381190592e-01
7.780000000000000249e+00 4.482456973080732876e-01
7.799999999999999822e+00 4.462130344202777654e-01
7.820000000000000284e+00 4.441919120666434906e-01
7.839999999999999858e+00 4.421822793670520113e-01
7.860000000000000320e+00 4.401840478996227879e-01
7.879999999999999893e+00 4.381971679596906033e-01
