# Electrodo circular de radio 6 mm y espesor 710.0 um.
# Volumen de simulacion (convencion z,y,x):
# N: 1024 x 1024 x 1024 | voxelSize:  0.02mm x 0.02mm x 0.02mm | FOV:  20.48mm x 20.48mm x 20.48mm
# 
# z [mm]		 delta[ppm]
0.000000000000000000e+00 3.025680969706113554e+00
2.000000000000000042e-02 3.018023252962570790e+00
4.000000000000000083e-02 3.010161496280976401e+00
5.999999999999999778e-02 3.002099329347742263e+00
8.000000000000000167e-02 2.993840516006957664e+00
1.000000000000000056e-01 2.985388890326859723e+00
1.199999999999999956e-01 2.976748343845763589e+00
1.400000000000000133e-01 2.967922820670519268e+00
1.600000000000000033e-01 2.958916309169724812e+00
1.799999999999999933e-01 2.949732843442230745e+00
2.000000000000000111e-01 2.940376492372955397e+00
2.200000000000000011e-01 2.930851362876111033e+00
2.399999999999999911e-01 2.921161588188544656e+00
2.600000000000000089e-01 2.911311331906780264e+00
2.800000000000000266e-01 2.901304775681511128e+00
2.999999999999999889e-01 2.891146123937151202e+00
3.200000000000000067e-01 2.880839591141702627e+00
3.400000000000000244e-01 2.870389407144182226e+00
3.599999999999999867e-01 2.859799804073441809e+00
3.800000000000000044e-01 2.849075022276244429e+00
4.000000000000000222e-01 2.838219296912301015e+00
4.199999999999999845e-01 2.827236864480632050e+00
4.400000000000000022e-01 2.816131949144413227e+00
4.600000000000000200e-01 2.804908769843422078e+00
4.799999999999999822e-01 2.793571526385888237e+00
5.000000000000000000e-01 2.782124407145069700e+00
5.200000000000000178e-01 2.770571574941528503e+00
5.400000000000000355e-01 2.758917175323863713e+00
5.600000000000000533e-01 2.747165322265163301e+00
5.799999999999999600e-01 2.735320107026617986e+00
5.999999999999999778e-01 2.723385583684672540e+00
6.199999999999999956e-01 2.711365778575654861e+00
6.400000000000000133e-01 2.699264675669332370e+00
6.600000000000000311e-01 2.687086226590857940e+00
6.800000000000000488e-01 2.674834335851885569e+00
7.000000000000000666e-01 2.662512871444786100e+00
7.199999999999999734e-01 2.650125649941187600e+00
7.399999999999999911e-01 2.637676447651518430e+00
7.600000000000000089e-01 2.625168985597734039e+00
7.800000000000000266e-01 2.612606941229664415e+00
8.000000000000000444e-01 2.599993933277367386e+00
8.200000000000000622e-01 2.587333534014037095e+00
8.399999999999999689e-01 2.574629253991163047e+00
8.599999999999999867e-01 2.561884554836310723e+00
8.800000000000000044e-01 2.549102833873091001e+00
9.000000000000000222e-01 2.536287437440651882e+00
9.200000000000000400e-01 2.523441645398866395e+00
9.400000000000000577e-01 2.510568684955160279e+00
9.599999999999999645e-01 2.497671715054398778e+00
9.799999999999999822e-01 2.484753840697512484e+00
1.000000000000000000e+00 2.471818097214511845e+00
1.020000000000000018e+00 2.458867465058462098e+00
1.040000000000000036e+00 2.445904853959357972e+00
1.060000000000000053e+00 2.432933118176220155e+00
1.080000000000000071e+00 2.419955040528943613e+00
1.100000000000000089e+00 2.406973348090647669e+00
1.120000000000000107e+00 2.393990696094264958e+00
1.140000000000000124e+00 2.381009684046758057e+00
1.159999999999999920e+00 2.368032839506968745e+00
1.179999999999999938e+00 2.355062634603005467e+00
1.199999999999999956e+00 2.342101469677750902e+00
1.219999999999999973e+00 2.329151690190514046e+00
1.239999999999999991e+00 2.316215570226637155e+00
1.260000000000000009e+00 2.303295329764422750e+00
1.280000000000000027e+00 2.290393118045420451e+00
1.300000000000000044e+00 2.277511031187675616e+00
1.320000000000000062e+00 2.264651095413531046e+00
1.340000000000000080e+00 2.251815284990364319e+00
1.360000000000000098e+00 2.239005505313091504e+00
1.380000000000000115e+00 2.226223611153756998e+00
1.400000000000000133e+00 2.213471389596355365e+00
1.419999999999999929e+00 2.200750578576934124e+00
1.439999999999999947e+00 2.188062849668824583e+00
1.459999999999999964e+00 2.175409826895251530e+00
1.479999999999999982e+00 2.162793069363626142e+00
1.500000000000000000e+00 2.150214090333061989e+00
1.520000000000000018e+00 2.137674339696928882e+00
1.540000000000000036e+00 2.125175223288114701e+00
1.560000000000000053e+00 2.112718085209676300e+00
1.580000000000000071e+00 2.100304227361135645e+00
1.600000000000000089e+00 2.087934891617686972e+00
1.620000000000000107e+00 2.075611279561306421e+00
1.640000000000000124e+00 2.063334534509606577e+00
1.660000000000000142e+00 2.051105761436071262e+00
1.679999999999999938e+00 2.038926008850248550e+00
1.699999999999999956e+00 2.026796288891912656e+00
1.719999999999999973e+00 2.014717559064985952e+00
1.739999999999999991e+00 2.002690742490900178e+00
1.760000000000000009e+00 1.990716709499245951e+00
1.780000000000000027e+00 1.978796298026102241e+00
1.800000000000000044e+00 1.966930295065037582e+00
1.820000000000000062e+00 1.955119457196673238e+00
1.840000000000000080e+00 1.943364491904233660e+00
1.860000000000000098e+00 1.931666078221047744e+00
1.880000000000000115e+00 1.920024847915439814e+00
1.900000000000000133e+00 1.908441406243347682e+00
1.919999999999999929e+00 1.896916313007833477e+00
1.939999999999999947e+00 1.885450103404429978e+00
1.959999999999999964e+00 1.874043268961102848e+00
1.979999999999999982e+00 1.862696278464310629e+00
2.000000000000000000e+00 1.851409558785710896e+00
2.020000000000000018e+00 1.840183515877323428e+00
2.040000000000000036e+00 1.829018515491733332e+00
2.060000000000000053e+00 1.817914904235071072e+00
2.080000000000000071e+00 1.806872990187885053e+00
2.100000000000000089e+00 1.795893064004986606e+00
2.120000000000000107e+00 1.784975379444564858e+00
2.140000000000000124e+00 1.774120174504240754e+00
2.160000000000000142e+00 1.763327651866322565e+00
2.180000000000000160e+00 1.752598000059700345e+00
2.200000000000000178e+00 1.741931373829489038e+00
2.220000000000000195e+00 1.731327915314635257e+00
2.240000000000000213e+00 1.720787734350478271e+00
2.260000000000000231e+00 1.710310929652167911e+00
2.280000000000000249e+00 1.699897569058934632e+00
2.300000000000000266e+00 1.689547710713650730e+00
2.319999999999999840e+00 1.679261383257821372e+00
2.339999999999999858e+00 1.669038606997767182e+00
2.359999999999999876e+00 1.658879374059617273e+00
2.379999999999999893e+00 1.648783669532759122e+00
2.399999999999999911e+00 1.638751451594234299e+00
2.419999999999999929e+00 1.628782672620267213e+00
2.439999999999999947e+00 1.618877259289684734e+00
2.459999999999999964e+00 1.609035133654423744e+00
2.479999999999999982e+00 1.599256193231704648e+00
2.500000000000000000e+00 1.589540332024556690e+00
2.520000000000000018e+00 1.579887420612611226e+00
2.540000000000000036e+00 1.570297327113775454e+00
2.560000000000000053e+00 1.560769897283589946e+00
2.580000000000000071e+00 1.551304975409261155e+00
2.600000000000000089e+00 1.541902384427632056e+00
2.620000000000000107e+00 1.532561946742870385e+00
2.640000000000000124e+00 1.523283464373131890e+00
2.660000000000000142e+00 1.514066739683257445e+00
2.680000000000000160e+00 1.504911555570299209e+00
2.700000000000000178e+00 1.495817696102617500e+00
2.720000000000000195e+00 1.486784926754454395e+00
2.740000000000000213e+00 1.477813014942869874e+00
2.760000000000000231e+00 1.468901710321596665e+00
2.780000000000000249e+00 1.460050765207290491e+00
2.800000000000000266e+00 1.451259914942885310e+00
2.819999999999999840e+00 1.442528898204654908e+00
2.839999999999999858e+00 1.433857437445332339e+00
2.859999999999999876e+00 1.425245259073509407e+00
2.879999999999999893e+00 1.416692073986722811e+00
2.899999999999999911e+00 1.408197597614748497e+00
2.919999999999999929e+00 1.399761530552903421e+00
2.939999999999999947e+00 1.391383578460764214e+00
2.959999999999999964e+00 1.383063432805879289e+00
2.979999999999999982e+00 1.374800790609498335e+00
3.000000000000000000e+00 1.366595335310862414e+00
3.020000000000000018e+00 1.358446756351548101e+00
3.040000000000000036e+00 1.350354730170433726e+00
3.060000000000000053e+00 1.342318939618251994e+00
3.080000000000000071e+00 1.334339055093367810e+00
3.100000000000000089e+00 1.326414753778105249e+00
3.120000000000000107e+00 1.318545700925396469e+00
3.140000000000000124e+00 1.310731568908484856e+00
3.160000000000000142e+00 1.302972018668457022e+00
3.180000000000000160e+00 1.295266718568936382e+00
3.200000000000000178e+00 1.287615326014436068e+00
3.220000000000000195e+00 1.280017506101667424e+00
3.240000000000000213e+00 1.272472913418617679e+00
3.260000000000000231e+00 1.264981210484082297e+00
3.280000000000000249e+00 1.257542049737326417e+00
3.300000000000000266e+00 1.250155091757451542e+00
3.320000000000000284e+00 1.242819987453431585e+00
3.339999999999999858e+00 1.235536396054954134e+00
3.359999999999999876e+00 1.228303967512546446e+00
3.379999999999999893e+00 1.221122360251523986e+00
3.399999999999999911e+00 1.213991223791892171e+00
3.419999999999999929e+00 1.206910216257025104e+00
3.439999999999999947e+00 1.199878987222955384e+00
3.459999999999999964e+00 1.192897194973436159e+00
3.479999999999999982e+00 1.185964489588154924e+00
3.500000000000000000e+00 1.179080529935850663e+00
3.520000000000000018e+00 1.172244967010915850e+00
3.540000000000000036e+00 1.165457460656239563e+00
3.560000000000000053e+00 1.158717663157630362e+00
3.580000000000000071e+00 1.152025235688044491e+00
3.600000000000000089e+00 1.145379832169187706e+00
3.620000000000000107e+00 1.138781115428829205e+00
3.640000000000000124e+00 1.132228741338858313e+00
3.660000000000000142e+00 1.125722374677409654e+00
3.680000000000000160e+00 1.119261673552578440e+00
3.700000000000000178e+00 1.112846304961069954e+00
3.720000000000000195e+00 1.106475929506762101e+00
3.740000000000000213e+00 1.100150216647615808e+00
3.760000000000000231e+00 1.093868829718148694e+00
3.780000000000000249e+00 1.087631440856381193e+00
3.800000000000000266e+00 1.081437716339264332e+00
3.820000000000000284e+00 1.075287331181422390e+00
3.839999999999999858e+00 1.069179954792506271e+00
3.859999999999999876e+00 1.063115265239532592e+00
3.879999999999999893e+00 1.057092935235056874e+00
3.899999999999999911e+00 1.051112646054941147e+00
3.919999999999999929e+00 1.045174073866180775e+00
3.939999999999999947e+00 1.039276903291946219e+00
3.959999999999999964e+00 1.033420814087840700e+00
3.979999999999999982e+00 1.027605494346074178e+00
4.000000000000000000e+00 1.021830627528890201e+00
4.020000000000000462e+00 1.016095905303753488e+00
4.040000000000000036e+00 1.010401014942587050e+00
4.060000000000000497e+00 1.004745651779911153e+00
4.080000000000000071e+00 9.991295069864867262e-01
4.099999999999999645e+00 9.935522796423458258e-01
4.120000000000000107e+00 9.880136648933798282e-01
4.139999999999999680e+00 9.825133656312108332e-01
4.160000000000000142e+00 9.770510810412478264e-01
4.179999999999999716e+00 9.716265178813848769e-01
4.200000000000000178e+00 9.662393794299205529e-01
4.219999999999999751e+00 9.608893763551318301e-01
4.240000000000000213e+00 9.555762160714365017e-01
4.259999999999999787e+00 9.502996131918819422e-01
4.280000000000000249e+00 9.450592793008719683e-01
4.299999999999999822e+00 9.398549329816346942e-01
4.320000000000000284e+00 9.346862900138046548e-01
4.339999999999999858e+00 9.295530729679655213e-01
4.360000000000000320e+00 9.244550018363033583e-01
4.379999999999999893e+00 9.193918031863664853e-01
4.400000000000000355e+00 9.143632012329356851e-01
4.419999999999999929e+00 9.093689265431779134e-01
4.440000000000000391e+00 9.044087075578576274e-01
4.459999999999999964e+00 8.994822788400503866e-01
4.480000000000000426e+00 8.945893730537978206e-01
4.500000000000000000e+00 8.897297287485766981e-01
4.520000000000000462e+00 8.849030828034202267e-01
4.540000000000000036e+00 8.801091777393982296e-01
4.560000000000000497e+00 8.753477546371890572e-01
4.580000000000000071e+00 8.706185599698254007e-01
4.600000000000000533e+00 8.659213390016669010e-01
4.620000000000000107e+00 8.612558421336966585e-01
4.639999999999999680e+00 8.566218187918132054e-01
4.660000000000000142e+00 8.520190232769864203e-01
4.679999999999999716e+00 8.474472091507215810e-01
4.700000000000000178e+00 8.429061345824223617e-01
4.719999999999999751e+00 8.383955572398631428e-01
4.740000000000000213e+00 8.339152391261153152e-01
4.759999999999999787e+00 8.294649419828187265e-01
4.780000000000000249e+00 8.250444316090439489e-01
4.799999999999999822e+00 8.206534737851406414e-01
4.820000000000000284e+00 8.162918380659519579e-01
4.839999999999999858e+00 8.119592942329374452e-01
4.860000000000000320e+00 8.076556155541678717e-01
4.879999999999999893e+00 8.033805757724412633e-01
4.900000000000000355e+00 7.991339518244976459e-01
4.919999999999999929e+00 7.949155213727856495e-01
4.940000000000000391e+00 7.907250649763581940e-01
4.959999999999999964e+00 7.865623641739486471e-01
4.980000000000000426e+00 7.824272030990158111e-01
5.000000000000000000e+00 7.783193671217457643e-01
5.020000000000000462e+00 7.742386439007487020e-01
5.040000000000000036e+00 7.701848225915730595e-01
5.060000000000000497e+00 7.661576943275723028e-01
5.080000000000000071e+00 7.621570520025012785e-01
5.100000000000000533e+00 7.581826901730627233e-01
5.120000000000000107e+00 7.542344054231571171e-01
5.139999999999999680e+00 7.503119956806413304e-01
5.160000000000000142e+00 7.464152611707625118e-01
5.179999999999999716e+00 7.425440031396658425e-01
5.200000000000000178e+00 7.386980254045498739e-01
5.219999999999999751e+00 7.348771324764727941e-01
5.240000000000000213e+00 7.310811317147293265e-01
5.259999999999999787e+00 7.273098308415095747e-01
5.280000000000000249e+00 7.235630407080096971e-01
5.299999999999999822e+00 7.198405721935053903e-01
5.320000000000000284e+00 7.161422395906726912e-01
5.339999999999999858e+00 7.124678568816522617e-01
5.360000000000000320e+00 7.088172417500625544e-01
5.379999999999999893e+00 7.051902112266120737e-01
5.400000000000000355e+00 7.015865863353002441e-01
5.419999999999999929e+00 6.980061871011254970e-01
5.440000000000000391e+00 6.944488378379596316e-01
5.459999999999999964e+00 6.909143615109160086e-01
5.480000000000000426e+00 6.874025856733717577e-01
5.500000000000000000e+00 6.839133361765505903e-01
5.520000000000000462e+00 6.804464437631740914e-01
5.540000000000000036e+00 6.770017371168103315e-01
5.560000000000000497e+00 6.735790501196460278e-01
5.580000000000000071e+00 6.701782142341247139e-01
5.600000000000000533e+00 6.667990664323452110e-01
5.620000000000000107e+00 6.634414409025165549e-01
5.639999999999999680e+00 6.601051776574867747e-01
5.660000000000000142e+00 6.567901135585223482e-01
5.679999999999999716e+00 6.534960916104847195e-01
5.700000000000000178e+00 6.502229512954363910e-01
5.719999999999999751e+00 6.469705385620005966e-01
5.740000000000000213e+00 6.437386954612596135e-01
5.759999999999999787e+00 6.405272708378552116e-01
5.780000000000000249e+00 6.373361092606339984e-01
5.799999999999999822e+00 6.341650624230628086e-01
5.820000000000000284e+00 6.310139773610573544e-01
5.839999999999999858e+00 6.278827085702877175e-01
5.860000000000000320e+00 6.247711055036079264e-01
5.879999999999999893e+00 6.216790254128871096e-01
5.900000000000000355e+00 6.186063201183977789e-01
5.919999999999999929e+00 6.155528495828191948e-01
5.940000000000000391e+00 6.125184679449412473e-01
5.959999999999999964e+00 6.095030378335186683e-01
5.980000000000000426e+00 6.065064156575956655e-01
6.000000000000000000e+00 6.035284666679316956e-01
6.020000000000000462e+00 6.005690494962184767e-01
6.040000000000000036e+00 5.976280319718243472e-01
6.060000000000000497e+00 5.947052749021465301e-01
6.080000000000000071e+00 5.918006486524631793e-01
6.100000000000000533e+00 5.889140161596098100e-01
6.120000000000000107e+00 5.860452502827725452e-01
6.140000000000000568e+00 5.831942160426438759e-01
6.160000000000000142e+00 5.803607887510255914e-01
6.179999999999999716e+00 5.775448354675708496e-01
6.200000000000000178e+00 5.747462339161263367e-01
6.219999999999999751e+00 5.719648531510992395e-01
6.240000000000000213e+00 5.692005732685245789e-01
6.259999999999999787e+00 5.664532652740604801e-01
6.280000000000000249e+00 5.637228115967981568e-01
6.299999999999999822e+00 5.610090851508323651e-01
6.320000000000000284e+00 5.583119706599027898e-01
6.339999999999999858e+00 5.556313429044245078e-01
6.360000000000000320e+00 5.529670888651025962e-01
6.379999999999999893e+00 5.503190851472481437e-01
6.400000000000000355e+00 5.476872209515748491e-01
6.419999999999999929e+00 5.450713746675542870e-01
6.440000000000000391e+00 5.424714376796697657e-01
6.459999999999999964e+00 5.398872901215081566e-01
6.480000000000000426e+00 5.373188255258078971e-01
6.500000000000000000e+00 5.347659257309026470e-01
6.520000000000000462e+00 5.322284863829814805e-01
6.540000000000000036e+00 5.297063909864337949e-01
6.560000000000000497e+00 5.271995372668106805e-01
6.580000000000000071e+00 5.247078103565333551e-01
6.600000000000000533e+00 5.222311100271314066e-01
6.620000000000000107e+00 5.197693230016999788e-01
6.640000000000000568e+00 5.173223510650624135e-01
6.660000000000000142e+00 5.148900824942764798e-01
6.679999999999999716e+00 5.124724210554678638e-01
6.700000000000000178e+00 5.100692565436011350e-01
6.719999999999999751e+00 5.076804946747996983e-01
6.740000000000000213e+00 5.053060267265127026e-01
6.759999999999999787e+00 5.029457603342332161e-01
6.780000000000000249e+00 5.005995882231010219e-01
6.799999999999999822e+00 4.982674199180307517e-01
6.820000000000000284e+00 4.959491495576697218e-01
6.839999999999999858e+00 4.936446885270694973e-01
6.860000000000000320e+00 4.913539323448172236e-01
6.879999999999999893e+00 4.890767942274641400e-01
6.900000000000000355e+00 4.868131710405742552e-01
6.919999999999999929e+00 4.845629778042133129e-01
6.940000000000000391e+00 4.823261126985388669e-01
6.959999999999999964e+00 4.801024925197825421e-01
6.980000000000000426e+00 4.778920167308929323e-01
7.000000000000000000e+00 4.756946038775565211e-01
7.020000000000000462e+00 4.735101546742733203e-01
7.040000000000000036e+00 4.713385893900882140e-01
7.060000000000000497e+00 4.691798099603758931e-01
7.080000000000000071e+00 4.670337383520534735e-01
7.100000000000000533e+00 4.649002776912355972e-01
7.120000000000000107e+00 4.627793516178340116e-01
7.140000000000000568e+00 4.606708644191021551e-01
7.160000000000000142e+00 4.585747413836606112e-01
7.179999999999999716e+00 4.564908879308252065e-01
7.200000000000000178e+00 4.544192309742219882e-01
7.219999999999999751e+00 4.523596770366644648e-01
7.240000000000000213e+00 4.503121546336623093e-01
7.259999999999999787e+00 4.482765713634632720e-01
7.280000000000000249e+00 4.462528573208985327e-01
7.299999999999999822e+00 4.442409211520729762e-01
7.320000000000000284e+00 4.422406945091394426e-01
7.339999999999999858e+00 4.402520870589714530e-01
7.360000000000000320e+00 4.382750319895904467e-01
7.379999999999999893e+00 4.363094399620071617e-01
7.400000000000000355e+00 4.343552456792001970e-01
7.419999999999999929e+00 4.324123607701484961e-01
7.440000000000000391e+00 4.304807214324048448e-01
7.459999999999999964e+00 4.285602402371909703e-01
7.480000000000000426e+00 4.266508548567752301e-01
7.500000000000000000e+00 4.247524787793356404e-01
7.520000000000000462e+00 4.228650511325046657e-01
7.540000000000000036e+00 4.209884862965575514e-01
7.560000000000000497e+00 4.191227248356532709e-01
7.580000000000000071e+00 4.172676819977065299e-01
7.600000000000000533e+00 4.154232997650520454e-01
7.620000000000000107e+00 4.135894942292047682e-01
7.640000000000000568e+00 4.117662087728219955e-01
7.660000000000000142e+00 4.099533603073634569e-01
7.679999999999999716e+00 4.081508935984287101e-01
7.700000000000000178e+00 4.063587263541483807e-01
7.719999999999999751e+00 4.045768047061618078e-01
7.740000000000000213e+00 4.028050471363733287e-01
7.759999999999999787e+00 4.010434011260212150e-01
7.780000000000000249e+00 3.992917859082453780e-01
7.799999999999999822e+00 3.975501502978964208e-01
7.820000000000000284e+00 3.958184142571697928e-01
7.839999999999999858e+00 3.940965279189921899e-01
7.860000000000000320e+00 3.923844119527679086e-01
7.879999999999999893e+00 3.906820177944090311e-01
