# Electrodo circular de radio 6 mm y espesor 710.0 um.
# Volumen de simulacion (convencion z,y,x):
# N: 1024 x 1024 x 1024 | voxelSize:  0.02mm x 0.02mm x 0.02mm | FOV:  20.48mm x 20.48mm x 20.48mm
# 
# z [mm]		 delta[ppm]
0.000000000000000000e+00 2.617923659905147638e+00
2.000000000000000042e-02 2.613995489035853659e+00
4.000000000000000083e-02 2.609952739627239726e+00
5.999999999999999778e-02 2.605796443451728450e+00
8.000000000000000167e-02 2.601527712893028976e+00
1.000000000000000056e-01 2.597147691123617097e+00
1.199999999999999956e-01 2.592657542941306570e+00
1.400000000000000133e-01 2.588058458192814992e+00
1.600000000000000033e-01 2.583351646883431663e+00
1.799999999999999933e-01 2.578538342762382918e+00
2.000000000000000111e-01 2.573619798161144612e+00
2.200000000000000011e-01 2.568597288033456216e+00
2.399999999999999911e-01 2.563472103997984863e+00
2.600000000000000089e-01 2.558245558952410459e+00
2.800000000000000266e-01 2.552918980683030803e+00
2.999999999999999889e-01 2.547493716903022065e+00
3.200000000000000067e-01 2.541971128402602975e+00
3.400000000000000244e-01 2.536352594467470745e+00
3.599999999999999867e-01 2.530639505705250425e+00
3.800000000000000044e-01 2.524833269796032731e+00
4.000000000000000222e-01 2.518935303971714390e+00
4.199999999999999845e-01 2.512947041083412714e+00
4.400000000000000022e-01 2.506869921801501810e+00
4.600000000000000200e-01 2.500705400980545612e+00
4.799999999999999822e-01 2.494454939563695017e+00
5.000000000000000000e-01 2.488120011238308393e+00
5.200000000000000178e-01 2.481702094086513544e+00
5.400000000000000355e-01 2.475202677521505468e+00
5.600000000000000533e-01 2.468623253673632778e+00
5.799999999999999600e-01 2.461965324603250238e+00
5.999999999999999778e-01 2.455230393451572457e+00
6.199999999999999956e-01 2.448419971923613048e+00
6.400000000000000133e-01 2.441535571197213095e+00
6.600000000000000311e-01 2.434578709672708730e+00
6.800000000000000488e-01 2.427550903662379245e+00
7.000000000000000666e-01 2.420453675401739169e+00
7.199999999999999734e-01 2.413288543515613949e+00
7.399999999999999911e-01 2.406057031287764936e+00
7.600000000000000089e-01 2.398760656921459677e+00
7.800000000000000266e-01 2.391400942062746893e+00
8.000000000000000444e-01 2.383979401853737912e+00
8.200000000000000622e-01 2.376497553705956278e+00
8.399999999999999689e-01 2.368956907161248626e+00
8.599999999999999867e-01 2.361358972910536203e+00
8.800000000000000044e-01 2.353705252462014563e+00
9.000000000000000222e-01 2.345997247401248487e+00
9.200000000000000400e-01 2.338236448879540852e+00
9.400000000000000577e-01 2.330424347110500172e+00
9.599999999999999645e-01 2.322562420679209261e+00
9.799999999999999822e-01 2.314652146270742783e+00
1.000000000000000000e+00 2.306694987811534148e+00
1.020000000000000018e+00 2.298692406424571733e+00
1.040000000000000036e+00 2.290645849404405077e+00
1.060000000000000053e+00 2.282556760393993578e+00
1.080000000000000071e+00 2.274426568203572252e+00
1.100000000000000089e+00 2.266256697203524073e+00
1.120000000000000107e+00 2.258048555989130790e+00
1.140000000000000124e+00 2.249803547983936447e+00
1.159999999999999920e+00 2.241523059959745989e+00
1.179999999999999938e+00 2.233208472844444792e+00
1.199999999999999956e+00 2.224861150099729734e+00
1.219999999999999973e+00 2.216482448727396193e+00
1.239999999999999991e+00 2.208073707513482642e+00
1.260000000000000009e+00 2.199636258226619567e+00
1.280000000000000027e+00 2.191171413731440420e+00
1.300000000000000044e+00 2.182680479372567817e+00
1.320000000000000062e+00 2.174164740965486065e+00
1.340000000000000080e+00 2.165625476359377188e+00
1.360000000000000098e+00 2.157063943308637377e+00
1.380000000000000115e+00 2.148481391207762492e+00
1.400000000000000133e+00 2.139879048851311527e+00
1.419999999999999929e+00 2.131258136333718411e+00
1.439999999999999947e+00 2.122619852701189025e+00
1.459999999999999964e+00 2.113965388009308999e+00
1.479999999999999982e+00 2.105295910874373178e+00
1.500000000000000000e+00 2.096612580681378901e+00
1.520000000000000018e+00 2.087916535038577770e+00
1.540000000000000036e+00 2.079208902128396819e+00
1.560000000000000053e+00 2.070490788072521404e+00
1.580000000000000071e+00 2.061763289418100165e+00
1.600000000000000089e+00 2.053027480417382478e+00
1.620000000000000107e+00 2.044284425641536895e+00
1.640000000000000124e+00 2.035535167182009886e+00
1.660000000000000142e+00 2.026780737384083597e+00
1.679999999999999938e+00 2.018022145974259551e+00
1.699999999999999956e+00 2.009260392905670933e+00
1.719999999999999973e+00 2.000496455418595332e+00
1.739999999999999991e+00 1.991731300989658671e+00
1.760000000000000009e+00 1.982965874330062439e+00
1.780000000000000027e+00 1.974201110430502837e+00
1.800000000000000044e+00 1.965437921504188390e+00
1.820000000000000062e+00 1.956677210119299071e+00
1.840000000000000080e+00 1.947919856091617996e+00
1.860000000000000098e+00 1.939166729696323310e+00
1.880000000000000115e+00 1.930418678517330955e+00
1.900000000000000133e+00 1.921676540730131499e+00
1.919999999999999929e+00 1.912941131912906823e+00
1.939999999999999947e+00 1.904213258392118524e+00
1.959999999999999964e+00 1.895493704022563231e+00
1.979999999999999982e+00 1.886783243587283776e+00
2.000000000000000000e+00 1.878082629551923066e+00
2.020000000000000018e+00 1.869392605510596717e+00
2.040000000000000036e+00 1.860713892921729506e+00
2.060000000000000053e+00 1.852047204591454665e+00
2.080000000000000071e+00 1.843393231396516008e+00
2.100000000000000089e+00 1.834752655796758836e+00
2.120000000000000107e+00 1.826126138552408795e+00
2.140000000000000124e+00 1.817514332257153642e+00
2.160000000000000142e+00 1.808917868055638811e+00
2.180000000000000160e+00 1.800337369188650394e+00
2.200000000000000178e+00 1.791773437718245265e+00
2.220000000000000195e+00 1.783226668076519639e+00
2.240000000000000213e+00 1.774697633804432684e+00
2.260000000000000231e+00 1.766186901095669226e+00
2.280000000000000249e+00 1.757695015556667073e+00
2.300000000000000266e+00 1.749222515737035133e+00
2.319999999999999840e+00 1.740769919917088515e+00
2.339999999999999858e+00 1.732337739616311323e+00
2.359999999999999876e+00 1.723926466416024317e+00
2.379999999999999893e+00 1.715536585437354322e+00
2.399999999999999911e+00 1.707168562205542139e+00
2.419999999999999929e+00 1.698822856088901601e+00
2.439999999999999947e+00 1.690499907212525965e+00
2.459999999999999964e+00 1.682200149849687909e+00
2.479999999999999982e+00 1.673923999391645934e+00
2.500000000000000000e+00 1.665671865682996078e+00
2.520000000000000018e+00 1.657444140055424509e+00
2.540000000000000036e+00 1.649241208598478670e+00
2.560000000000000053e+00 1.641063439264174750e+00
2.580000000000000071e+00 1.632911195064679299e+00
2.600000000000000089e+00 1.624784821255727207e+00
2.620000000000000107e+00 1.616684658452709034e+00
2.640000000000000124e+00 1.608611029899976952e+00
2.660000000000000142e+00 1.600564254496836369e+00
2.680000000000000160e+00 1.592544634160808492e+00
2.700000000000000178e+00 1.584552466755029254e+00
2.720000000000000195e+00 1.576588033552690060e+00
2.740000000000000213e+00 1.568651612057371247e+00
2.760000000000000231e+00 1.560743463576834245e+00
2.780000000000000249e+00 1.552863845927788811e+00
2.800000000000000266e+00 1.545013001126406937e+00
2.819999999999999840e+00 1.537191167969088168e+00
2.839999999999999858e+00 1.529398569847922440e+00
2.859999999999999876e+00 1.521635427198981372e+00
2.879999999999999893e+00 1.513901945450247588e+00
2.899999999999999911e+00 1.506198327328982067e+00
2.919999999999999929e+00 1.498524760950456836e+00
2.939999999999999947e+00 1.490881431975915383e+00
2.959999999999999964e+00 1.483268511849750615e+00
2.979999999999999982e+00 1.475686169799639069e+00
3.000000000000000000e+00 1.468134561230541868e+00
3.020000000000000018e+00 1.460613839558577931e+00
3.040000000000000036e+00 1.453124144769579740e+00
3.060000000000000053e+00 1.445665615078283173e+00
3.080000000000000071e+00 1.438238375659903534e+00
3.100000000000000089e+00 1.430842550126205204e+00
3.120000000000000107e+00 1.423478249437923671e+00
3.140000000000000124e+00 1.416145583189317492e+00
3.160000000000000142e+00 1.408844648709944858e+00
3.180000000000000160e+00 1.401575542149267717e+00
3.200000000000000178e+00 1.394338347775700093e+00
3.220000000000000195e+00 1.387133148852891296e+00
3.240000000000000213e+00 1.379960017144565176e+00
3.260000000000000231e+00 1.372819023574078479e+00
3.280000000000000249e+00 1.365710227943066402e+00
3.300000000000000266e+00 1.358633689365869035e+00
3.320000000000000284e+00 1.351589456210567919e+00
3.339999999999999858e+00 1.344577576299892829e+00
3.359999999999999876e+00 1.337598087082694009e+00
3.379999999999999893e+00 1.330651025592954007e+00
3.399999999999999911e+00 1.323736418860323782e+00
3.419999999999999929e+00 1.316854293618831218e+00
3.439999999999999947e+00 1.310004666964583953e+00
3.459999999999999964e+00 1.303187555805839892e+00
3.479999999999999982e+00 1.296402967776487447e+00
3.500000000000000000e+00 1.289650910419085417e+00
3.520000000000000018e+00 1.282931382362296313e+00
3.540000000000000036e+00 1.276244382228546970e+00
3.560000000000000053e+00 1.269589900084043377e+00
3.580000000000000071e+00 1.262967926062655621e+00
3.600000000000000089e+00 1.256378442096757420e+00
3.620000000000000107e+00 1.249821430248975629e+00
3.640000000000000124e+00 1.243296864732475804e+00
3.660000000000000142e+00 1.236804719942236730e+00
3.680000000000000160e+00 1.230344962773023187e+00
3.700000000000000178e+00 1.223917560341800437e+00
3.720000000000000195e+00 1.217522472612088569e+00
3.740000000000000213e+00 1.211159659799153410e+00
3.760000000000000231e+00 1.204829075308984754e+00
3.780000000000000249e+00 1.198530672817932352e+00
3.800000000000000266e+00 1.192264399534969321e+00
3.820000000000000284e+00 1.186030202947410794e+00
3.839999999999999858e+00 1.179828024414765864e+00
3.859999999999999876e+00 1.173657805572174029e+00
3.879999999999999893e+00 1.167519482264523178e+00
3.899999999999999911e+00 1.161412990599242079e+00
3.919999999999999929e+00 1.155338261228996855e+00
3.939999999999999947e+00 1.149295225045491531e+00
3.959999999999999964e+00 1.143283807819412745e+00
3.979999999999999982e+00 1.137303935526875254e+00
4.000000000000000000e+00 1.131355529354960865e+00
4.020000000000000462e+00 1.125438510652434276e+00
4.040000000000000036e+00 1.119552796309546627e+00
4.060000000000000497e+00 1.113698303324688110e+00
4.080000000000000071e+00 1.107874944566780595e+00
4.099999999999999645e+00 1.102082632949515251e+00
4.120000000000000107e+00 1.096321277585001308e+00
4.139999999999999680e+00 1.090590787557216945e+00
4.160000000000000142e+00 1.084891068475301035e+00
4.179999999999999716e+00 1.079222025837837995e+00
4.200000000000000178e+00 1.073583561994446711e+00
4.219999999999999751e+00 1.067975579092552918e+00
4.240000000000000213e+00 1.062397976455654369e+00
4.259999999999999787e+00 1.056850653104188797e+00
4.280000000000000249e+00 1.051333505559139958e+00
4.299999999999999822e+00 1.045846429928653176e+00
4.320000000000000284e+00 1.040389320145361340e+00
4.339999999999999858e+00 1.034962069610336544e+00
4.360000000000000320e+00 1.029564569872852831e+00
4.379999999999999893e+00 1.024196711823271766e+00
4.400000000000000355e+00 1.018858384823613683e+00
4.419999999999999929e+00 1.013549477441024971e+00
4.440000000000000391e+00 1.008269877037802686e+00
4.459999999999999964e+00 1.003019470037062932e+00
4.480000000000000426e+00 9.977981419806474239e-01
4.500000000000000000e+00 9.926057773185334998e-01
4.520000000000000462e+00 9.874422599433387848e-01
4.540000000000000036e+00 9.823074724950902059e-01
4.560000000000000497e+00 9.772012973807004954e-01
4.580000000000000071e+00 9.721236155856816108e-01
4.600000000000000533e+00 9.670743081873068858e-01
4.620000000000000107e+00 9.620532546648249417e-01
4.639999999999999680e+00 9.570603349147533967e-01
4.660000000000000142e+00 9.520954270511451378e-01
4.679999999999999716e+00 9.471584099317162941e-01
4.700000000000000178e+00 9.422491604397199572e-01
4.719999999999999751e+00 9.373675565293698719e-01
4.740000000000000213e+00 9.325134739808380591e-01
4.759999999999999787e+00 9.276867899737071266e-01
4.780000000000000249e+00 9.228873793066172393e-01
4.799999999999999822e+00 9.181151185072248255e-01
4.820000000000000284e+00 9.133698815080038003e-01
4.839999999999999858e+00 9.086515443014457905e-01
4.860000000000000320e+00 9.039599800635249593e-01
4.879999999999999893e+00 8.992950643626304030e-01
4.900000000000000355e+00 8.946566697221690623e-01
4.919999999999999929e+00 8.900446713920097119e-01
4.940000000000000391e+00 8.854589413416762422e-01
4.959999999999999964e+00 8.808993546028334176e-01
4.980000000000000426e+00 8.763657826845137055e-01
5.000000000000000000e+00 8.718581004954393254e-01
5.020000000000000462e+00 8.673761791727131465e-01
5.040000000000000036e+00 8.629198935925345149e-01
5.060000000000000497e+00 8.584891146037507692e-01
5.080000000000000071e+00 8.540837171358034441e-01
5.100000000000000533e+00 8.497035718285248507e-01
5.120000000000000107e+00 8.453485537459121124e-01
5.139999999999999680e+00 8.410185333935156216e-01
5.160000000000000142e+00 8.367133860469249118e-01
5.179999999999999716e+00 8.324329821480818126e-01
5.200000000000000178e+00 8.281771972571151386e-01
5.219999999999999751e+00 8.239459018188846073e-01
5.240000000000000213e+00 8.197389717470863202e-01
5.259999999999999787e+00 8.155562775523000907e-01
5.280000000000000249e+00 8.113976955670603175e-01
5.299999999999999822e+00 8.072630964266709341e-01
5.320000000000000284e+00 8.031523569441867405e-01
5.339999999999999858e+00 7.990653479352267663e-01
5.360000000000000320e+00 7.950019467516233895e-01
5.379999999999999893e+00 7.909620244414027335e-01
5.400000000000000355e+00 7.869454589501408970e-01
5.419999999999999929e+00 7.829521216072624634e-01
5.440000000000000391e+00 7.789818910039150168e-01
5.459999999999999964e+00 7.750346387967101958e-01
5.480000000000000426e+00 7.711102442711899041e-01
5.500000000000000000e+00 7.672085794541096959e-01
5.520000000000000462e+00 7.633295243713708045e-01
5.540000000000000036e+00 7.594729514598786979e-01
5.560000000000000497e+00 7.556387415291270226e-01
5.580000000000000071e+00 7.518267674636178732e-01
5.600000000000000533e+00 7.480369108970380543e-01
5.620000000000000107e+00 7.442690451962424847e-01
5.639999999999999680e+00 7.405230528572350757e-01
5.660000000000000142e+00 7.367988077616342002e-01
5.679999999999999716e+00 7.330961933035066158e-01
5.700000000000000178e+00 7.294150839091770866e-01
5.719999999999999751e+00 7.257553639042507720e-01
5.740000000000000213e+00 7.221169082876015555e-01
5.759999999999999787e+00 7.184996023476835081e-01
5.780000000000000249e+00 7.149033216814884018e-01
5.799999999999999822e+00 7.113279525695769268e-01
5.820000000000000284e+00 7.077733712307313629e-01
5.839999999999999858e+00 7.042394649649084126e-01
5.860000000000000320e+00 7.007261106342740353e-01
5.879999999999999893e+00 6.972331965836089385e-01
5.900000000000000355e+00 6.937606003383423037e-01
5.919999999999999929e+00 6.903082113117214869e-01
5.940000000000000391e+00 6.868759077104245048e-01
5.959999999999999964e+00 6.834635800381250181e-01
5.980000000000000426e+00 6.800711071991814016e-01
6.000000000000000000e+00 6.766983808080385687e-01
6.020000000000000462e+00 6.733452804814469284e-01
6.040000000000000036e+00 6.700116989634341547e-01
6.060000000000000497e+00 6.666975165964610373e-01
6.080000000000000071e+00 6.634026272715052297e-01
6.100000000000000533e+00 6.601269120684595260e-01
6.120000000000000107e+00 6.568702660412433225e-01
6.140000000000000568e+00 6.536325710176759118e-01
6.160000000000000142e+00 6.504137232292774851e-01
6.179999999999999716e+00 6.472136052608415957e-01
6.200000000000000178e+00 6.440321145349259258e-01
6.219999999999999751e+00 6.408691344012156232e-01
6.240000000000000213e+00 6.377245634855540635e-01
6.259999999999999787e+00 6.345982859091413575e-01
6.280000000000000249e+00 6.314902015122358936e-01
6.299999999999999822e+00 6.284001951931569296e-01
6.320000000000000284e+00 6.253281680166519196e-01
6.339999999999999858e+00 6.222740056625813976e-01
6.360000000000000320e+00 6.192376104292425243e-01
6.379999999999999893e+00 6.162188687815668420e-01
6.400000000000000355e+00 6.132176842595227217e-01
6.419999999999999929e+00 6.102339441155371080e-01
6.440000000000000391e+00 6.072675531384716940e-01
6.459999999999999964e+00 6.043183993699008383e-01
6.480000000000000426e+00 6.013863888539454639e-01
6.500000000000000000e+00 5.984714104219741593e-01
6.520000000000000462e+00 5.955733713789365114e-01
6.540000000000000036e+00 5.926921613459462668e-01
6.560000000000000497e+00 5.898276888935902740e-01
6.580000000000000071e+00 5.869798444317690933e-01
6.600000000000000533e+00 5.841485378008097751e-01
6.620000000000000107e+00 5.813336601978242868e-01
6.640000000000000568e+00 5.785351227363032534e-01
6.660000000000000142e+00 5.757528173981717456e-01
6.679999999999999716e+00 5.729866565728688466e-01
6.700000000000000178e+00 5.702365330241947472e-01
6.719999999999999751e+00 5.675023604197373395e-01
6.740000000000000213e+00 5.647840323014708952e-01
6.759999999999999787e+00 5.620814636167648093e-01
6.780000000000000249e+00 5.593945486816089829e-01
6.799999999999999822e+00 5.567232037242629827e-01
6.820000000000000284e+00 5.540673238298687853e-01
6.839999999999999858e+00 5.514268265081933018e-01
6.860000000000000320e+00 5.488016076082758987e-01
6.879999999999999893e+00 5.461915859215421554e-01
6.900000000000000355e+00 5.435966580550326555e-01
6.919999999999999929e+00 5.410167440815552009e-01
6.940000000000000391e+00 5.384517413599171354e-01
6.959999999999999964e+00 5.359015712436194789e-01
6.980000000000000426e+00 5.333661318364167903e-01
7.000000000000000000e+00 5.308453457714493728e-01
7.020000000000000462e+00 5.283391118903072448e-01
7.040000000000000036e+00 5.258473541043642285e-01
7.060000000000000497e+00 5.233699719853965870e-01
7.080000000000000071e+00 5.209068907212744959e-01
7.100000000000000533e+00 5.184580106060803217e-01
7.120000000000000107e+00 5.160232581021444442e-01
7.140000000000000568e+00 5.136025342174722619e-01
7.160000000000000142e+00 5.111957666865435401e-01
7.179999999999999716e+00 5.088028572227106805e-01
7.200000000000000178e+00 5.064237348300273389e-01
7.219999999999999751e+00 5.040583019181663627e-01
7.240000000000000213e+00 5.017064887579468779e-01
7.259999999999999787e+00 4.993681984461749712e-01
7.280000000000000249e+00 4.970433625174076053e-01
7.299999999999999822e+00 4.947318847459750146e-01
7.320000000000000284e+00 4.924336979269471337e-01
7.339999999999999858e+00 4.901487065024597300e-01
7.360000000000000320e+00 4.878768445246881580e-01
7.379999999999999893e+00 4.856180170934562002e-01
7.400000000000000355e+00 4.833721595144709893e-01
7.419999999999999929e+00 4.811391775350475353e-01
7.440000000000000391e+00 4.789190077107117194e-01
7.459999999999999964e+00 4.767115564256997895e-01
7.480000000000000426e+00 4.745167614815072876e-01
7.500000000000000000e+00 4.723345298886756916e-01
7.520000000000000462e+00 4.701648006907001021e-01
7.540000000000000036e+00 4.680074815134795951e-01
7.560000000000000497e+00 4.658625126384350335e-01
7.580000000000000071e+00 4.637298022958315502e-01
7.600000000000000533e+00 4.616092920008533773e-01
7.620000000000000107e+00 4.595008905768434571e-01
7.640000000000000568e+00 4.574045407685135012e-01
7.660000000000000142e+00 4.553201519809689790e-01
7.679999999999999716e+00 4.532476681841497990e-01
7.700000000000000178e+00 4.511869993533294543e-01
7.719999999999999751e+00 4.491380906793099870e-01
7.740000000000000213e+00 4.471008526959565632e-01
7.759999999999999787e+00 4.450752318105393179e-01
7.780000000000000249e+00 4.430611391036498037e-01
7.799999999999999822e+00 4.410585221945950707e-01
7.820000000000000284e+00 4.390672926988721247e-01
7.839999999999999858e+00 4.370873994433692178e-01
7.860000000000000320e+00 4.351187545664066958e-01
7.879999999999999893e+00 4.331613080979867525e-01
