# Electrodo circular de radio 6 mm y espesor 710.0 um.
# Volumen de simulacion (convencion z,y,x):
# N: 1024 x 1024 x 1024 | voxelSize:  0.02mm x 0.02mm x 0.02mm | FOV:  20.48mm x 20.48mm x 20.48mm
# 
# z [mm]		 delta[ppm]
0.000000000000000000e+00 2.824171616886108183e+00
2.000000000000000042e-02 2.818568992280756635e+00
4.000000000000000083e-02 2.812809722254206779e+00
5.999999999999999778e-02 2.806895895680290742e+00
8.000000000000000167e-02 2.800829675346435010e+00
1.000000000000000056e-01 2.794613279662048644e+00
1.199999999999999956e-01 2.788248957957351504e+00
1.400000000000000133e-01 2.781739001583259263e+00
1.600000000000000033e-01 2.775085732432150287e+00
1.799999999999999933e-01 2.768291509547951446e+00
2.000000000000000111e-01 2.761358719378666837e+00
2.200000000000000011e-01 2.754289781593281194e+00
2.399999999999999911e-01 2.747087139326718219e+00
2.600000000000000089e-01 2.739753265088701983e+00
2.800000000000000266e-01 2.732290650877721827e+00
2.999999999999999889e-01 2.724701814300116265e+00
3.200000000000000067e-01 2.716989288456593155e+00
3.400000000000000244e-01 2.709155628339736221e+00
3.599999999999999867e-01 2.701203400485096662e+00
3.800000000000000044e-01 2.693135189675920138e+00
4.000000000000000222e-01 2.684953588343699682e+00
4.199999999999999845e-01 2.676661203602666017e+00
4.400000000000000022e-01 2.668260646403564085e+00
4.600000000000000200e-01 2.659754538910959809e+00
4.799999999999999822e-01 2.651145503412200899e+00
5.000000000000000000e-01 2.642436170047741228e+00
5.200000000000000178e-01 2.633629165482261225e+00
5.400000000000000355e-01 2.624727120994548191e+00
5.600000000000000533e-01 2.615732660917416741e+00
5.799999999999999600e-01 2.606648411091865736e+00
5.999999999999999778e-01 2.597476987083439326e+00
6.199999999999999956e-01 2.588221003003419618e+00
6.400000000000000133e-01 2.578883059509307962e+00
6.600000000000000311e-01 2.569465752994423813e+00
6.800000000000000488e-01 2.559971663379853712e+00
7.000000000000000666e-01 2.550403363672451462e+00
7.199999999999999734e-01 2.540763407555712394e+00
7.399999999999999911e-01 2.531054339315034873e+00
7.600000000000000089e-01 2.521278681234154107e+00
7.800000000000000266e-01 2.511438943885416553e+00
8.000000000000000444e-01 2.501537613338560728e+00
8.200000000000000622e-01 2.491577161812748908e+00
8.399999999999999689e-01 2.481560034703509832e+00
8.599999999999999867e-01 2.471488661592366132e+00
8.800000000000000044e-01 2.461365443097899952e+00
9.000000000000000222e-01 2.451192762237909939e+00
9.200000000000000400e-01 2.440972971109616640e+00
9.400000000000000577e-01 2.430708402598535489e+00
9.599999999999999645e-01 2.420401356892945444e+00
9.799999999999999822e-01 2.410054113532891673e+00
1.000000000000000000e+00 2.399668917763240650e+00
1.020000000000000018e+00 2.389247992915541463e+00
1.040000000000000036e+00 2.378793526604091824e+00
1.060000000000000053e+00 2.368307683432809174e+00
1.080000000000000071e+00 2.357792591038001984e+00
1.100000000000000089e+00 2.347250353111814292e+00
1.120000000000000107e+00 2.336683035295596955e+00
1.140000000000000124e+00 2.326092678510970124e+00
1.159999999999999920e+00 2.315481284707082033e+00
1.179999999999999938e+00 2.304850830489904023e+00
1.199999999999999956e+00 2.294203252726863429e+00
1.219999999999999973e+00 2.283540462464598075e+00
1.239999999999999991e+00 2.272864330393962184e+00
1.260000000000000009e+00 2.262176701046125782e+00
1.280000000000000027e+00 2.251479378121228780e+00
1.300000000000000044e+00 2.240774138952395855e+00
1.320000000000000062e+00 2.230062719700950602e+00
1.340000000000000080e+00 2.219346830077692179e+00
1.360000000000000098e+00 2.208628138407869201e+00
1.380000000000000115e+00 2.197908286598852179e+00
1.400000000000000133e+00 2.187188875077816341e+00
1.419999999999999929e+00 2.176471477994792902e+00
1.439999999999999947e+00 2.165757628036341309e+00
1.459999999999999964e+00 2.155048831852837576e+00
1.479999999999999982e+00 2.144346554751249023e+00
1.500000000000000000e+00 2.133652236335431329e+00
1.520000000000000018e+00 2.122967275081503402e+00
1.540000000000000036e+00 2.112293044179855084e+00
1.560000000000000053e+00 2.101630875996495895e+00
1.580000000000000071e+00 2.090982078105518394e+00
1.600000000000000089e+00 2.080347917640160471e+00
1.620000000000000107e+00 2.069729637504415631e+00
1.640000000000000124e+00 2.059128440617583600e+00
1.660000000000000142e+00 2.048545506293739660e+00
1.679999999999999938e+00 2.037981974383896056e+00
1.699999999999999956e+00 2.027438961812129570e+00
1.719999999999999973e+00 2.016917546619495738e+00
1.739999999999999991e+00 2.006418784645655595e+00
1.760000000000000009e+00 1.995943693479098613e+00
1.780000000000000027e+00 1.985493269273169270e+00
1.800000000000000044e+00 1.975068470607217463e+00
1.820000000000000062e+00 1.964670235426030587e+00
1.840000000000000080e+00 1.954299464816912302e+00
1.860000000000000098e+00 1.943957040061609520e+00
1.880000000000000115e+00 1.933643806334398363e+00
1.900000000000000133e+00 1.923360589855744873e+00
1.919999999999999929e+00 1.913108181516807615e+00
1.939999999999999947e+00 1.902887354124178199e+00
1.959999999999999964e+00 1.892698845956370723e+00
1.979999999999999982e+00 1.882543378089033492e+00
2.000000000000000000e+00 1.872421637889358781e+00
2.020000000000000018e+00 1.862334296411338297e+00
2.040000000000000036e+00 1.852281991834070718e+00
2.060000000000000053e+00 1.842265346916755586e+00
2.080000000000000071e+00 1.832284952387233101e+00
2.100000000000000089e+00 1.822341384446514612e+00
2.120000000000000107e+00 1.812435188114007500e+00
2.140000000000000124e+00 1.802566894771487682e+00
2.160000000000000142e+00 1.792737005471767509e+00
2.180000000000000160e+00 1.782946008512128033e+00
2.200000000000000178e+00 1.773194362713294669e+00
2.220000000000000195e+00 1.763482515012468665e+00
2.240000000000000213e+00 1.753810883719741920e+00
2.260000000000000231e+00 1.744179876120976802e+00
2.280000000000000249e+00 1.734589871718881238e+00
2.300000000000000266e+00 1.725041239836088369e+00
2.319999999999999840e+00 1.715534322848379700e+00
2.339999999999999858e+00 1.706069453778406686e+00
2.359999999999999876e+00 1.696646939528628995e+00
2.379999999999999893e+00 1.687267078456219371e+00
2.399999999999999911e+00 1.677930143613499459e+00
2.419999999999999929e+00 1.668636400294661204e+00
2.439999999999999947e+00 1.659386089291566835e+00
2.459999999999999964e+00 1.650179444402995133e+00
2.479999999999999982e+00 1.641016675713861783e+00
2.500000000000000000e+00 1.631897987057784549e+00
2.520000000000000018e+00 1.622823559327837284e+00
2.540000000000000036e+00 1.613793567883308411e+00
2.560000000000000053e+00 1.604808165900274863e+00
2.580000000000000071e+00 1.595867501713476910e+00
2.600000000000000089e+00 1.586971702215053126e+00
2.620000000000000107e+00 1.578120890122533870e+00
2.640000000000000124e+00 1.569315167434215397e+00
2.660000000000000142e+00 1.560554632614329362e+00
2.680000000000000160e+00 1.551839364113575925e+00
2.700000000000000178e+00 1.543169437462574844e+00
2.720000000000000195e+00 1.534544908866200874e+00
2.740000000000000213e+00 1.525965832196472416e+00
2.760000000000000231e+00 1.517432242669366049e+00
2.780000000000000249e+00 1.508944173728350213e+00
2.800000000000000266e+00 1.500501640812429427e+00
2.819999999999999840e+00 1.492104658121590877e+00
2.839999999999999858e+00 1.483753222484855527e+00
2.859999999999999876e+00 1.475447329998922807e+00
2.879999999999999893e+00 1.467186960005105734e+00
2.899999999999999911e+00 1.458972091592484643e+00
2.919999999999999929e+00 1.450802687692612780e+00
2.939999999999999947e+00 1.442678711438523553e+00
2.959999999999999964e+00 1.434600110386147209e+00
2.979999999999999982e+00 1.426566832720571165e+00
3.000000000000000000e+00 1.418578811613094848e+00
3.020000000000000018e+00 1.410635981266162631e+00
3.040000000000000036e+00 1.402738261415040100e+00
3.060000000000000053e+00 1.394885573202858442e+00
3.080000000000000071e+00 1.387077823835905610e+00
3.100000000000000089e+00 1.379314922280231892e+00
3.120000000000000107e+00 1.371596764079576536e+00
3.140000000000000124e+00 1.363923246865021088e+00
3.160000000000000142e+00 1.356294255344560939e+00
3.180000000000000160e+00 1.348709676617302344e+00
3.200000000000000178e+00 1.341169385343704556e+00
3.220000000000000195e+00 1.333673258855874399e+00
3.240000000000000213e+00 1.326221162517451591e+00
3.260000000000000231e+00 1.318812964621543404e+00
3.280000000000000249e+00 1.311448521949319490e+00
3.300000000000000266e+00 1.304127694447114072e+00
3.320000000000000284e+00 1.296850330992727951e+00
3.339999999999999858e+00 1.289616283843287636e+00
3.359999999999999876e+00 1.282425394618259773e+00
3.379999999999999893e+00 1.275277508509655044e+00
3.399999999999999911e+00 1.268172460490751385e+00
3.419999999999999929e+00 1.261110089280218949e+00
3.439999999999999947e+00 1.254090223785541580e+00
3.459999999999999964e+00 1.247112696812723742e+00
3.479999999999999982e+00 1.240177331753317791e+00
3.500000000000000000e+00 1.233283956031331341e+00
3.520000000000000018e+00 1.226432388042855370e+00
3.540000000000000036e+00 1.219622450331814933e+00
3.560000000000000053e+00 1.212853956791078769e+00
3.580000000000000071e+00 1.206126725558705370e+00
3.600000000000000089e+00 1.199440566489487603e+00
3.620000000000000107e+00 1.192795293763356357e+00
3.640000000000000124e+00 1.186190713636194882e+00
3.660000000000000142e+00 1.179626636752103108e+00
3.680000000000000160e+00 1.173102866182359927e+00
3.700000000000000178e+00 1.166619209433225723e+00
3.720000000000000195e+00 1.160175466781878884e+00
3.740000000000000213e+00 1.153771442971463612e+00
3.760000000000000231e+00 1.147406935852810506e+00
3.780000000000000249e+00 1.141081747758473597e+00
3.800000000000000266e+00 1.134795674458976000e+00
3.820000000000000284e+00 1.128548516207561248e+00
3.839999999999999858e+00 1.122340067019762744e+00
3.859999999999999876e+00 1.116170125380604672e+00
3.879999999999999893e+00 1.110038483856183644e+00
3.899999999999999911e+00 1.103944939455085317e+00
3.919999999999999929e+00 1.097889283580705477e+00
3.939999999999999947e+00 1.091871312038650732e+00
3.959999999999999964e+00 1.085890815338432125e+00
3.979999999999999982e+00 1.079947588338635800e+00
4.000000000000000000e+00 1.074041420906678201e+00
4.020000000000000462e+00 1.068172107193517961e+00
4.040000000000000036e+00 1.062339436660046932e+00
4.060000000000000497e+00 1.056543202973185158e+00
4.080000000000000071e+00 1.050783195407501758e+00
4.099999999999999645e+00 1.045059207354525066e+00
4.120000000000000107e+00 1.039371028108100559e+00
4.139999999999999680e+00 1.033718450978749370e+00
4.160000000000000142e+00 1.028101265471353942e+00
4.179999999999999716e+00 1.022519264996393895e+00
4.200000000000000178e+00 1.016972239448407533e+00
4.219999999999999751e+00 1.011459982505987565e+00
4.240000000000000213e+00 1.005982284619531431e+00
4.259999999999999787e+00 1.000538939891853385e+00
4.280000000000000249e+00 9.951297394836229326e-01
4.299999999999999822e+00 9.897544780665075148e-01
4.320000000000000284e+00 9.844129476547476276e-01
4.339999999999999858e+00 9.791049436226980651e-01
4.360000000000000320e+00 9.738302589709391111e-01
4.379999999999999893e+00 9.685886899001067141e-01
4.400000000000000355e+00 9.633800305199274883e-01
4.419999999999999929e+00 9.582040779712918122e-01
4.440000000000000391e+00 9.530606275864851318e-01
4.459999999999999964e+00 9.479494775514576421e-01
4.480000000000000426e+00 9.428704245256346317e-01
4.500000000000000000e+00 9.378232678362569130e-01
4.520000000000000462e+00 9.328078055660727896e-01
4.540000000000000036e+00 9.278238382717326482e-01
4.560000000000000497e+00 9.228711655476272702e-01
4.580000000000000071e+00 9.179495892602996809e-01
4.600000000000000533e+00 9.130589105966763208e-01
4.620000000000000107e+00 9.081989328064505873e-01
4.639999999999999680e+00 9.033694587429920153e-01
4.660000000000000142e+00 8.985702931056717135e-01
4.679999999999999716e+00 8.938012404816244594e-01
4.700000000000000178e+00 8.890621070800114323e-01
4.719999999999999751e+00 8.843526992828910638e-01
4.740000000000000213e+00 8.796728248633713942e-01
4.759999999999999787e+00 8.750222920537668037e-01
4.780000000000000249e+00 8.704009102396349506e-01
4.799999999999999822e+00 8.658084895534298164e-01
4.820000000000000284e+00 8.612448410364138551e-01
4.839999999999999858e+00 8.567097767659379581e-01
4.860000000000000320e+00 8.522031094772410942e-01
4.879999999999999893e+00 8.477246532325305450e-01
4.900000000000000355e+00 8.432742224946704335e-01
4.919999999999999929e+00 8.388516333461879526e-01
4.940000000000000391e+00 8.344567020068419660e-01
4.959999999999999964e+00 8.300892466107268053e-01
4.980000000000000426e+00 8.257490851597202308e-01
5.000000000000000000e+00 8.214360378667865392e-01
5.020000000000000462e+00 8.171499245373038400e-01
5.040000000000000036e+00 8.128905674867282771e-01
5.060000000000000497e+00 8.086577883417851442e-01
5.080000000000000071e+00 8.044514115405915211e-01
5.100000000000000533e+00 8.002712605457121819e-01
5.120000000000000107e+00 7.961171619348853534e-01
5.139999999999999680e+00 7.919889410179179468e-01
5.160000000000000142e+00 7.878864265261288358e-01
5.179999999999999716e+00 7.838094456250550568e-01
5.200000000000000178e+00 7.797578292107573139e-01
5.219999999999999751e+00 7.757314063103138979e-01
5.240000000000000213e+00 7.717300099930929358e-01
5.259999999999999787e+00 7.677534711509775844e-01
5.280000000000000249e+00 7.638016250327828160e-01
5.299999999999999822e+00 7.598743043961651011e-01
5.320000000000000284e+00 7.559713466732749243e-01
5.339999999999999858e+00 7.520925864863023946e-01
5.360000000000000320e+00 7.482378634525481687e-01
5.379999999999999893e+00 7.444070140555013593e-01
5.400000000000000355e+00 7.405998800974876728e-01
5.419999999999999929e+00 7.368162999181736561e-01
5.440000000000000391e+00 7.330561175029971510e-01
5.459999999999999964e+00 7.293191730409785967e-01
5.480000000000000426e+00 7.256053126970956058e-01
5.500000000000000000e+00 7.219143785012737125e-01
5.520000000000000462e+00 7.182462187929391506e-01
5.540000000000000036e+00 7.146006774330154743e-01
5.560000000000000497e+00 7.109776049288799582e-01
5.580000000000000071e+00 7.073768469611723120e-01
5.600000000000000533e+00 7.037982561974170936e-01
5.620000000000000107e+00 7.002416801254606193e-01
5.639999999999999680e+00 6.967069735639972450e-01
5.660000000000000142e+00 6.931939857943865135e-01
5.679999999999999716e+00 6.897025737764275188e-01
5.700000000000000178e+00 6.862325885702682537e-01
5.719999999999999751e+00 6.827838892657492886e-01
5.740000000000000213e+00 6.793563286861078465e-01
5.759999999999999787e+00 6.759497680392546615e-01
5.780000000000000249e+00 6.725640618949429994e-01
5.799999999999999822e+00 6.691990735663659873e-01
5.820000000000000284e+00 6.658546593524087287e-01
5.839999999999999858e+00 6.625306846580067965e-01
5.860000000000000320e+00 6.592270074930745016e-01
5.879999999999999893e+00 6.559434953400826718e-01
5.900000000000000355e+00 6.526800079012027300e-01
5.919999999999999929e+00 6.494364147216221683e-01
5.940000000000000391e+00 6.462125771764164472e-01
5.959999999999999964e+00 6.430083668581386691e-01
5.980000000000000426e+00 6.398236467948624773e-01
6.000000000000000000e+00 6.366582906106676987e-01
6.020000000000000462e+00 6.335121629662665566e-01
6.040000000000000036e+00 6.303851395009992808e-01
6.060000000000000497e+00 6.272770864874147589e-01
6.080000000000000071e+00 6.241878815634832600e-01
6.100000000000000533e+00 6.211173925924142747e-01
6.120000000000000107e+00 6.180654991938540066e-01
6.140000000000000568e+00 6.150320708001739689e-01
6.160000000000000142e+00 6.120169889954472087e-01
6.179999999999999716e+00 6.090201247594284606e-01
6.200000000000000178e+00 6.060413616231511424e-01
6.219999999999999751e+00 6.030805720917041812e-01
6.240000000000000213e+00 6.001376416254103896e-01
6.259999999999999787e+00 5.972124442324669991e-01
6.280000000000000249e+00 5.943048672846574787e-01
6.299999999999999822e+00 5.914147862708539760e-01
6.320000000000000284e+00 5.885420904563476441e-01
6.339999999999999858e+00 5.856866567881396923e-01
6.360000000000000320e+00 5.828483764069792850e-01
6.379999999999999893e+00 5.800271276953162802e-01
6.400000000000000355e+00 5.772228036512545568e-01
6.419999999999999929e+00 5.744352840699347151e-01
6.440000000000000391e+00 5.716644637886741931e-01
6.459999999999999964e+00 5.689102239924833659e-01
6.480000000000000426e+00 5.661724613397399741e-01
6.500000000000000000e+00 5.634510583824766661e-01
6.520000000000000462e+00 5.607459135819983231e-01
6.540000000000000036e+00 5.580569108344783924e-01
6.560000000000000497e+00 5.553839503860504845e-01
6.580000000000000071e+00 5.527269174541745711e-01
6.600000000000000533e+00 5.500857140517799726e-01
6.620000000000000107e+00 5.474602266947580231e-01
6.640000000000000568e+00 5.448503591448726757e-01
6.660000000000000142e+00 5.422559991936595214e-01
6.679999999999999716e+00 5.396770523338469960e-01
6.700000000000000178e+00 5.371134076098582621e-01
6.719999999999999751e+00 5.345649722276407667e-01
6.740000000000000213e+00 5.320316364618370431e-01
6.759999999999999787e+00 5.295133092139849840e-01
6.780000000000000249e+00 5.270098819663477929e-01
6.799999999999999822e+00 5.245212652985694612e-01
6.820000000000000284e+00 5.220473518780408551e-01
6.839999999999999858e+00 5.195880539451834812e-01
6.860000000000000320e+00 5.171432653301157867e-01
6.879999999999999893e+00 5.147128999168683050e-01
6.900000000000000355e+00 5.122968526760188768e-01
6.919999999999999929e+00 5.098950391182224262e-01
6.940000000000000391e+00 5.075073553323513620e-01
6.959999999999999964e+00 5.051337184388737800e-01
6.980000000000000426e+00 5.027740256229494831e-01
7.000000000000000000e+00 5.004281955982546881e-01
7.020000000000000462e+00 4.980961266243381091e-01
7.040000000000000036e+00 4.957777389916812605e-01
7.060000000000000497e+00 4.934729320124917606e-01
7.080000000000000071e+00 4.911816275378579344e-01
7.100000000000000533e+00 4.889037259110500244e-01
7.120000000000000107e+00 4.866391505277882779e-01
7.140000000000000568e+00 4.843878027409758702e-01
7.160000000000000142e+00 4.821496074752163463e-01
7.179999999999999716e+00 4.799244670717575656e-01
7.200000000000000178e+00 4.777123079685580143e-01
7.219999999999999751e+00 4.755130334741129450e-01
7.240000000000000213e+00 4.733265715244460159e-01
7.259999999999999787e+00 4.711528263743357536e-01
7.280000000000000249e+00 4.689917274428220262e-01
7.299999999999999822e+00 4.668431799101931956e-01
7.320000000000000284e+00 4.647071146636959083e-01
7.339999999999999858e+00 4.625834377885113535e-01
7.360000000000000320e+00 4.604720816255297722e-01
7.379999999999999893e+00 4.583729531443924698e-01
7.400000000000000355e+00 4.562859861253167892e-01
7.419999999999999929e+00 4.542110884021264283e-01
7.440000000000000391e+00 4.521481951803103527e-01
7.459999999999999964e+00 4.500972151377811703e-01
7.480000000000000426e+00 4.480580848914925696e-01
7.500000000000000000e+00 4.460307139435135126e-01
7.520000000000000462e+00 4.440150403087092523e-01
7.540000000000000036e+00 4.420109742935731667e-01
7.560000000000000497e+00 4.400184552975862640e-01
7.580000000000000071e+00 4.380373944120675711e-01
7.600000000000000533e+00 4.360677324080814432e-01
7.620000000000000107e+00 4.341093811423871185e-01
7.640000000000000568e+00 4.321622827448603488e-01
7.660000000000000142e+00 4.302263498184423218e-01
7.679999999999999716e+00 4.283015258393128577e-01
7.700000000000000178e+00 4.263877241375456650e-01
7.719999999999999751e+00 4.244848895233663266e-01
7.740000000000000213e+00 4.225929360350746955e-01
7.759999999999999787e+00 4.207118098049620891e-01
7.780000000000000249e+00 4.188414255608295389e-01
7.799999999999999822e+00 4.169817307453108635e-01
7.820000000000000284e+00 4.151326407571284682e-01
7.839999999999999858e+00 4.132941043377983403e-01
7.860000000000000320e+00 4.114660375385760793e-01
7.879999999999999893e+00 4.096483903886599109e-01
