# Electrodo circular de radio 6 mm y espesor 710.0 um.
# Volumen de simulacion (convencion z,y,x):
# N: 1024 x 1024 x 1024 | voxelSize:  0.02mm x 0.02mm x 0.02mm | FOV:  20.48mm x 20.48mm x 20.48mm
# 
# z [mm]		 delta[ppm]
0.000000000000000000e+00 4.856624128467555757e+00
2.000000000000000042e-02 4.799224289589401948e+00
4.000000000000000083e-02 4.741199253428256988e+00
5.999999999999999778e-02 4.682642783320926760e+00
8.000000000000000167e-02 4.623647715846185058e+00
1.000000000000000056e-01 4.564305337905463666e+00
1.199999999999999956e-01 4.504704855849948508e+00
1.400000000000000133e-01 4.444933104030759807e+00
1.600000000000000033e-01 4.385074192823456229e+00
1.799999999999999933e-01 4.325209251774909447e+00
2.000000000000000111e-01 4.265416150343541268e+00
2.200000000000000011e-01 4.205769300452280035e+00
2.399999999999999911e-01 4.146339448408150830e+00
2.600000000000000089e-01 4.087193545911643966e+00
2.800000000000000266e-01 4.028394613529419743e+00
2.999999999999999889e-01 3.970001680996349869e+00
3.200000000000000067e-01 3.912069718919307881e+00
3.400000000000000244e-01 3.854649644316342716e+00
3.599999999999999867e-01 3.797788313829531859e+00
3.800000000000000044e-01 3.741528586898273723e+00
4.000000000000000222e-01 3.685909371225501996e+00
4.199999999999999845e-01 3.630965733762672620e+00
4.400000000000000022e-01 3.576728987712249452e+00
4.600000000000000200e-01 3.523226840476360255e+00
4.799999999999999822e-01 3.470483511104136110e+00
5.000000000000000000e-01 3.418519904352168570e+00
5.200000000000000178e-01 3.367353747934558772e+00
5.400000000000000355e-01 3.316999782617707115e+00
5.600000000000000533e-01 3.267469909747893198e+00
5.799999999999999600e-01 3.218773388591595008e+00
5.999999999999999778e-01 3.170916986072998434e+00
6.199999999999999956e-01 3.123905174134386176e+00
6.400000000000000133e-01 3.077740275267559333e+00
6.600000000000000311e-01 3.032422654302557863e+00
6.800000000000000488e-01 2.987950854924477539e+00
7.000000000000000666e-01 2.944321781858329157e+00
7.199999999999999734e-01 2.901530825065199881e+00
7.399999999999999911e-01 2.859572029677703409e+00
7.600000000000000089e-01 2.818438205843381894e+00
7.800000000000000266e-01 2.778121084931347795e+00
8.000000000000000444e-01 2.738611414053136794e+00
8.200000000000000622e-01 2.699899097989524321e+00
8.399999999999999689e-01 2.661973278225816752e+00
8.599999999999999867e-01 2.624822460750235731e+00
8.800000000000000044e-01 2.588434580048815548e+00
9.000000000000000222e-01 2.552797113425571141e+00
9.200000000000000400e-01 2.517897130806117101e+00
9.400000000000000577e-01 2.483721396558604688e+00
9.599999999999999645e-01 2.450256406219706307e+00
9.799999999999999822e-01 2.417488476986194179e+00
1.000000000000000000e+00 2.385403772606601525e+00
1.020000000000000018e+00 2.353988383799398232e+00
1.040000000000000036e+00 2.323228342604879870e+00
1.060000000000000053e+00 2.293109693994388909e+00
1.080000000000000071e+00 2.263618500951730894e+00
1.100000000000000089e+00 2.234740908493225042e+00
1.120000000000000107e+00 2.206463140689718827e+00
1.140000000000000124e+00 2.178771558237460937e+00
1.159999999999999920e+00 2.151652648536746870e+00
1.179999999999999938e+00 2.125093077854193435e+00
1.199999999999999956e+00 2.099079675473642492e+00
1.219999999999999973e+00 2.073599481381311893e+00
1.239999999999999991e+00 2.048639725390575705e+00
1.260000000000000009e+00 2.024187871170983311e+00
1.280000000000000027e+00 2.000231591143490029e+00
1.300000000000000044e+00 1.976758807567054355e+00
1.320000000000000062e+00 1.953757663893813001e+00
1.340000000000000080e+00 1.931216563526742869e+00
1.360000000000000098e+00 1.909124138231758749e+00
1.380000000000000115e+00 1.887469285088066107e+00
1.400000000000000133e+00 1.866241132464404373e+00
1.419999999999999929e+00 1.845429075601493940e+00
1.439999999999999947e+00 1.825022740585374725e+00
1.459999999999999964e+00 1.805012018928547679e+00
1.479999999999999982e+00 1.785387029902904654e+00
1.500000000000000000e+00 1.766138154422773665e+00
1.520000000000000018e+00 1.747255996043717730e+00
1.540000000000000036e+00 1.728731414395748400e+00
1.560000000000000053e+00 1.710555485101330264e+00
1.580000000000000071e+00 1.692719532960175188e+00
1.600000000000000089e+00 1.675215090998940282e+00
1.620000000000000107e+00 1.658033933569078577e+00
1.640000000000000124e+00 1.641168034702035650e+00
1.660000000000000142e+00 1.624609601248041546e+00
1.679999999999999938e+00 1.608351030681987925e+00
1.699999999999999956e+00 1.592384944382730261e+00
1.719999999999999973e+00 1.576704145007201685e+00
1.739999999999999991e+00 1.561301649986301943e+00
1.760000000000000009e+00 1.546170648565312611e+00
1.780000000000000027e+00 1.531304535572866943e+00
1.800000000000000044e+00 1.516696868206269366e+00
1.820000000000000062e+00 1.502341400113979430e+00
1.840000000000000080e+00 1.488232037991609413e+00
1.860000000000000098e+00 1.474362876005068879e+00
1.880000000000000115e+00 1.460728152249434419e+00
1.900000000000000133e+00 1.447322283529187903e+00
1.919999999999999929e+00 1.434139821723994679e+00
1.939999999999999947e+00 1.421175488933659192e+00
1.959999999999999964e+00 1.408424133785489030e+00
1.979999999999999982e+00 1.395880766944546547e+00
2.000000000000000000e+00 1.383540517392363611e+00
2.020000000000000018e+00 1.371398668297425960e+00
2.040000000000000036e+00 1.359450613288520016e+00
2.060000000000000053e+00 1.347691892675900283e+00
2.080000000000000071e+00 1.336118149739861982e+00
2.100000000000000089e+00 1.324725167289517058e+00
2.120000000000000107e+00 1.313508823982704410e+00
2.140000000000000124e+00 1.302465131206585580e+00
2.160000000000000142e+00 1.291590189443749370e+00
2.180000000000000160e+00 1.280880225456753729e+00
2.200000000000000178e+00 1.270331548712164249e+00
2.220000000000000195e+00 1.259940588849619569e+00
2.240000000000000213e+00 1.249703852175261920e+00
2.260000000000000231e+00 1.239617959394768043e+00
2.280000000000000249e+00 1.229679602185378418e+00
2.300000000000000266e+00 1.219885581171599842e+00
2.319999999999999840e+00 1.210232762585359056e+00
2.339999999999999858e+00 1.200718116462544005e+00
2.359999999999999876e+00 1.191338673399197967e+00
2.379999999999999893e+00 1.182091562946810503e+00
2.399999999999999911e+00 1.172973970473114580e+00
2.419999999999999929e+00 1.163983175733953157e+00
2.439999999999999947e+00 1.155116509846007222e+00
2.459999999999999964e+00 1.146371394013096845e+00
2.479999999999999982e+00 1.137745296619049107e+00
2.500000000000000000e+00 1.129235772086449208e+00
2.520000000000000018e+00 1.120840418096856306e+00
2.540000000000000036e+00 1.112556914560267396e+00
2.560000000000000053e+00 1.104382980970860295e+00
2.580000000000000071e+00 1.096316415465740324e+00
2.600000000000000089e+00 1.088355052323527694e+00
2.620000000000000107e+00 1.080496801091335834e+00
2.640000000000000124e+00 1.072739604234525412e+00
2.660000000000000142e+00 1.065081476311235731e+00
2.680000000000000160e+00 1.057520461780891985e+00
2.700000000000000178e+00 1.050054674206009064e+00
2.720000000000000195e+00 1.042682254228042726e+00
2.740000000000000213e+00 1.035401408776630339e+00
2.760000000000000231e+00 1.028210369220655229e+00
2.780000000000000249e+00 1.021107430565533880e+00
2.800000000000000266e+00 1.014090909788337713e+00
2.819999999999999840e+00 1.007159185004181001e+00
2.839999999999999858e+00 1.000310653993545351e+00
2.859999999999999876e+00 9.935437733192870047e-01
2.879999999999999893e+00 9.868570170552423138e-01
2.899999999999999911e+00 9.802489158357993171e-01
2.919999999999999929e+00 9.737180157941928149e-01
2.939999999999999947e+00 9.672629175270185398e-01
2.959999999999999964e+00 9.608822352515057341e-01
2.979999999999999982e+00 9.545746356678080913e-01
3.000000000000000000e+00 9.483387973438281993e-01
3.020000000000000018e+00 9.421734494585626285e-01
3.040000000000000036e+00 9.360773314238857168e-01
3.060000000000000053e+00 9.300492314926226411e-01
3.080000000000000071e+00 9.240879466260318864e-01
3.100000000000000089e+00 9.181923209506701600e-01
3.120000000000000107e+00 9.123612058810995906e-01
3.140000000000000124e+00 9.065934984100328942e-01
3.160000000000000142e+00 9.008881014950457233e-01
3.180000000000000160e+00 8.952439621668911718e-01
3.200000000000000178e+00 8.896600321897591979e-01
3.220000000000000195e+00 8.841353059730191477e-01
3.240000000000000213e+00 8.786687815138271018e-01
3.260000000000000231e+00 8.732594980979340171e-01
3.280000000000000249e+00 8.679064975341707067e-01
3.300000000000000266e+00 8.626088616303061452e-01
3.320000000000000284e+00 8.573656737281737383e-01
3.339999999999999858e+00 8.521760559409414792e-01
3.359999999999999876e+00 8.470391309983270611e-01
3.379999999999999893e+00 8.419540592319667560e-01
3.399999999999999911e+00 8.369200007394101970e-01
3.419999999999999929e+00 8.319361521046085839e-01
3.439999999999999947e+00 8.270017088900331048e-01
3.459999999999999964e+00 8.221159020796443562e-01
3.479999999999999982e+00 8.172779609076762375e-01
3.500000000000000000e+00 8.124871490117691053e-01
3.520000000000000018e+00 8.077427276076117879e-01
3.540000000000000036e+00 8.030439913402257490e-01
3.560000000000000053e+00 7.983902318128460740e-01
3.580000000000000071e+00 7.937807731246558918e-01
3.600000000000000089e+00 7.892149357629147932e-01
3.620000000000000107e+00 7.846920718157344155e-01
3.640000000000000124e+00 7.802115292356335274e-01
3.660000000000000142e+00 7.757726867162640927e-01
3.680000000000000160e+00 7.713749183361681139e-01
3.700000000000000178e+00 7.670176280886097375e-01
3.720000000000000195e+00 7.627002149135281295e-01
3.740000000000000213e+00 7.584221068699281698e-01
3.760000000000000231e+00 7.541827265645573153e-01
3.780000000000000249e+00 7.499815249565878750e-01
3.800000000000000266e+00 7.458179471907541158e-01
3.820000000000000284e+00 7.416914660243050239e-01
3.839999999999999858e+00 7.376015480729022356e-01
3.859999999999999876e+00 7.335476868501001890e-01
3.879999999999999893e+00 7.295293694334561430e-01
3.899999999999999911e+00 7.255461091070577462e-01
3.919999999999999929e+00 7.215974124558682812e-01
3.939999999999999947e+00 7.176828116020630421e-01
3.959999999999999964e+00 7.138018317348008290e-01
3.979999999999999982e+00 7.099540229313584527e-01
4.000000000000000000e+00 7.061389281300980425e-01
4.020000000000000462e+00 7.023561145276470130e-01
4.040000000000000036e+00 6.986051420019345759e-01
4.060000000000000497e+00 6.948855940769208539e-01
4.080000000000000071e+00 6.911970468031670700e-01
4.099999999999999645e+00 6.875390992818295466e-01
4.120000000000000107e+00 6.839113430093575197e-01
4.139999999999999680e+00 6.803133919526779261e-01
4.160000000000000142e+00 6.767448523652340731e-01
4.179999999999999716e+00 6.732053524055096050e-01
4.200000000000000178e+00 6.696945124306898922e-01
4.219999999999999751e+00 6.662119741509261450e-01
4.240000000000000213e+00 6.627573714075004618e-01
4.259999999999999787e+00 6.593303588554210171e-01
4.280000000000000249e+00 6.559305832320959651e-01
4.299999999999999822e+00 6.525577115610486922e-01
4.320000000000000284e+00 6.492114029177057377e-01
4.339999999999999858e+00 6.458913361472328196e-01
4.360000000000000320e+00 6.425971821331417644e-01
4.379999999999999893e+00 6.393286310224549629e-01
4.400000000000000355e+00 6.360853650034212770e-01
4.419999999999999929e+00 6.328670850314149776e-01
4.440000000000000391e+00 6.296734841211684142e-01
4.459999999999999964e+00 6.265042735669920093e-01
4.480000000000000426e+00 6.233591567555586410e-01
4.500000000000000000e+00 6.202378548741909192e-01
4.520000000000000462e+00 6.171400812493263999e-01
4.540000000000000036e+00 6.140655665368427440e-01
4.560000000000000497e+00 6.110140335919241883e-01
4.580000000000000071e+00 6.079852221355626085e-01
4.600000000000000533e+00 6.049788641606647088e-01
4.620000000000000107e+00 6.019947080690255525e-01
4.639999999999999680e+00 5.990324946191507571e-01
4.660000000000000142e+00 5.960919805281829076e-01
4.679999999999999716e+00 5.931729149659816791e-01
4.700000000000000178e+00 5.902750626166497483e-01
4.719999999999999751e+00 5.873981807240766795e-01
4.740000000000000213e+00 5.845420416078614956e-01
4.759999999999999787e+00 5.817064102646104518e-01
4.780000000000000249e+00 5.788910663332065276e-01
4.799999999999999822e+00 5.760957822568129050e-01
4.820000000000000284e+00 5.733203446926136149e-01
4.839999999999999858e+00 5.705645332385295143e-01
4.860000000000000320e+00 5.678281412826914343e-01
4.879999999999999893e+00 5.651109552995791097e-01
4.900000000000000355e+00 5.624127751346322812e-01
4.919999999999999929e+00 5.597333938735808978e-01
4.940000000000000391e+00 5.570726175577389583e-01
4.959999999999999964e+00 5.544302456309992966e-01
4.980000000000000426e+00 5.518060900814815151e-01
5.000000000000000000e+00 5.491999564697377378e-01
5.020000000000000462e+00 5.466116624925687617e-01
5.040000000000000036e+00 5.440410195966697282e-01
5.060000000000000497e+00 5.414878509605725032e-01
5.080000000000000071e+00 5.389519736970365127e-01
5.100000000000000533e+00 5.364332162491700640e-01
5.120000000000000107e+00 5.339314011856121089e-01
5.139999999999999680e+00 5.314463620070171146e-01
5.160000000000000142e+00 5.289779265371183925e-01
5.179999999999999716e+00 5.265259331358747019e-01
5.200000000000000178e+00 5.240902146902536307e-01
5.219999999999999751e+00 5.216706142304531335e-01
5.240000000000000213e+00 5.192669695232989824e-01
5.259999999999999787e+00 5.168791280880489225e-01
5.280000000000000249e+00 5.145069323960617114e-01
5.299999999999999822e+00 5.121502342828162524e-01
5.320000000000000284e+00 5.098088807565412939e-01
5.339999999999999858e+00 5.074827278031793787e-01
5.360000000000000320e+00 5.051716268074515348e-01
5.379999999999999893e+00 5.028754377475814774e-01
5.400000000000000355e+00 5.005940162313385899e-01
5.419999999999999929e+00 4.983272260774104234e-01
5.440000000000000391e+00 4.960749269697549702e-01
5.459999999999999964e+00 4.938369864226191952e-01
5.480000000000000426e+00 4.916132680555649892e-01
5.500000000000000000e+00 4.894036429392096266e-01
5.520000000000000462e+00 4.872079784941016900e-01
5.540000000000000036e+00 4.850261492143476683e-01
5.560000000000000497e+00 4.828580261925602968e-01
5.580000000000000071e+00 4.807034872185871888e-01
5.600000000000000533e+00 4.785624069335917552e-01
5.620000000000000107e+00 4.764346663011882477e-01
5.639999999999999680e+00 4.743201433927415334e-01
5.660000000000000142e+00 4.722187222282724917e-01
5.679999999999999716e+00 4.701302841959114631e-01
5.700000000000000178e+00 4.680547162600097733e-01
5.719999999999999751e+00 4.659919030167243292e-01
5.740000000000000213e+00 4.639417342668070154e-01
5.759999999999999787e+00 4.619040977101619982e-01
5.780000000000000249e+00 4.598788858808679492e-01
5.799999999999999822e+00 4.578659894825687360e-01
5.820000000000000284e+00 4.558653036833191230e-01
5.839999999999999858e+00 4.538767220945540970e-01
5.860000000000000320e+00 4.519001424234141417e-01
5.879999999999999893e+00 4.499354610970708879e-01
5.900000000000000355e+00 4.479825782701998271e-01
5.919999999999999929e+00 4.460413930973527452e-01
5.940000000000000391e+00 4.441118080933075252e-01
5.959999999999999964e+00 4.421937250551826737e-01
5.980000000000000426e+00 4.402870487734121818e-01
6.000000000000000000e+00 4.383916836062458078e-01
6.020000000000000462e+00 4.365075365391398732e-01
6.040000000000000036e+00 4.346345144132655047e-01
6.060000000000000497e+00 4.327725263311351100e-01
6.080000000000000071e+00 4.309214815417234390e-01
6.100000000000000533e+00 4.290812911901606963e-01
6.120000000000000107e+00 4.272518668610488790e-01
6.140000000000000568e+00 4.254331216700882323e-01
6.160000000000000142e+00 4.236249694681542000e-01
6.179999999999999716e+00 4.218273252727365308e-01
6.200000000000000178e+00 4.200401051343297665e-01
6.219999999999999751e+00 4.182632259055605317e-01
6.240000000000000213e+00 4.164966057724633353e-01
6.259999999999999787e+00 4.147401633591974446e-01
6.280000000000000249e+00 4.129938189257273962e-01
6.299999999999999822e+00 4.112574928060284685e-01
6.320000000000000284e+00 4.095311072747487291e-01
6.339999999999999858e+00 4.078145843168021756e-01
6.360000000000000320e+00 4.061078481645316041e-01
6.379999999999999893e+00 4.044108223965891535e-01
6.400000000000000355e+00 4.027234331481931995e-01
6.419999999999999929e+00 4.010456055371849904e-01
6.440000000000000391e+00 3.993772675489060120e-01
6.459999999999999964e+00 3.977183457873217920e-01
6.480000000000000426e+00 3.960687700371390840e-01
6.500000000000000000e+00 3.944284683378607159e-01
6.520000000000000462e+00 3.927973722246992372e-01
6.540000000000000036e+00 3.911754111234121423e-01
6.560000000000000497e+00 3.895625182726858426e-01
6.580000000000000071e+00 3.879586244375811677e-01
6.600000000000000533e+00 3.863636645149775006e-01
6.620000000000000107e+00 3.847775705634273180e-01
6.640000000000000568e+00 3.832002790943976889e-01
6.660000000000000142e+00 3.816317234163101868e-01
6.679999999999999716e+00 3.800718416132231603e-01
6.700000000000000178e+00 3.785205682008004335e-01
6.719999999999999751e+00 3.769778427952402144e-01
6.740000000000000213e+00 3.754436010788902434e-01
6.759999999999999787e+00 3.739177841611168174e-01
6.780000000000000249e+00 3.724003288512396370e-01
6.799999999999999822e+00 3.708911777142508970e-01
6.820000000000000284e+00 3.693902686486870701e-01
6.839999999999999858e+00 3.678975456389916854e-01
6.860000000000000320e+00 3.664129476358846671e-01
6.879999999999999893e+00 3.649364200083881071e-01
6.900000000000000355e+00 3.634679027242430083e-01
6.919999999999999929e+00 3.620073425034462389e-01
6.940000000000000391e+00 3.605546802961857034e-01
6.959999999999999964e+00 3.591098641410357950e-01
6.980000000000000426e+00 3.576728359378371636e-01
7.000000000000000000e+00 3.562435450125168712e-01
7.020000000000000462e+00 3.548219341822576589e-01
7.040000000000000036e+00 3.534079540302272338e-01
7.060000000000000497e+00 3.520015482603396917e-01
7.080000000000000071e+00 3.506026686839688322e-01
7.100000000000000533e+00 3.492112598615323971e-01
7.120000000000000107e+00 3.478272748046154494e-01
7.140000000000000568e+00 3.464506589015317606e-01
7.160000000000000142e+00 3.450813663370798090e-01
7.179999999999999716e+00 3.437193432991552666e-01
7.200000000000000178e+00 3.423645451197286360e-01
7.219999999999999751e+00 3.410169187595176177e-01
7.240000000000000213e+00 3.396764206725538804e-01
7.259999999999999787e+00 3.383429985658228945e-01
7.280000000000000249e+00 3.370166099911893753e-01
7.299999999999999822e+00 3.356972033768454433e-01
7.320000000000000284e+00 3.343847373491218300e-01
7.339999999999999858e+00 3.330791610324875252e-01
7.360000000000000320e+00 3.317804341051986405e-01
7.379999999999999893e+00 3.304885063645045529e-01
7.400000000000000355e+00 3.292033385188440353e-01
7.419999999999999929e+00 3.279248810148004400e-01
7.440000000000000391e+00 3.266530955700188144e-01
7.459999999999999964e+00 3.253879332583664019e-01
7.480000000000000426e+00 3.241293567864593217e-01
7.500000000000000000e+00 3.228773178333758653e-01
7.520000000000000462e+00 3.216317800751777867e-01
7.540000000000000036e+00 3.203926957754389404e-01
7.560000000000000497e+00 3.191600295608400528e-01
7.580000000000000071e+00 3.179337342586283643e-01
7.600000000000000533e+00 3.167137754279352735e-01
7.620000000000000107e+00 3.155001064401917188e-01
7.640000000000000568e+00 3.142926937694613954e-01
7.660000000000000142e+00 3.130914913117043286e-01
7.679999999999999716e+00 3.118964664390130870e-01
7.700000000000000178e+00 3.107075735535071437e-01
7.719999999999999751e+00 3.095247809090103108e-01
7.740000000000000213e+00 3.083480433952156541e-01
7.759999999999999787e+00 3.071773301319603577e-01
7.780000000000000249e+00 3.060125964791801656e-01
7.799999999999999822e+00 3.048538124075659828e-01
7.820000000000000284e+00 3.037009337296946998e-01
7.839999999999999858e+00 3.025539312524959112e-01
7.860000000000000320e+00 3.014127612248107546e-01
7.879999999999999893e+00 3.002773952757218923e-01
