# Electrodo circular de radio 6 mm y espesor 710.0 um.
# Volumen de simulacion (convencion z,y,x):
# N: 1024 x 1024 x 1024 | voxelSize:  0.02mm x 0.02mm x 0.02mm | FOV:  20.48mm x 20.48mm x 20.48mm
# 
# z [mm]		 delta[ppm]
0.000000000000000000e+00 2.710162585953525216e+00
2.000000000000000042e-02 2.705535544160042605e+00
4.000000000000000083e-02 2.700775975598329381e+00
5.999999999999999778e-02 2.695885308572715910e+00
8.000000000000000167e-02 2.690865068325529297e+00
1.000000000000000056e-01 2.685716814957495480e+00
1.199999999999999956e-01 2.680442136072538339e+00
1.400000000000000133e-01 2.675042649839357800e+00
1.600000000000000033e-01 2.669520000343835520e+00
1.799999999999999933e-01 2.663875860414702590e+00
2.000000000000000111e-01 2.658111926226418120e+00
2.200000000000000011e-01 2.652229920887456238e+00
2.399999999999999911e-01 2.646231587969551491e+00
2.600000000000000089e-01 2.640118695914988933e+00
2.800000000000000266e-01 2.633893030894045140e+00
2.999999999999999889e-01 2.627556401804094222e+00
3.200000000000000067e-01 2.621110632576144184e+00
3.400000000000000244e-01 2.614557567665853899e+00
3.599999999999999867e-01 2.607899063925703587e+00
3.800000000000000044e-01 2.601136996521343558e+00
4.000000000000000222e-01 2.594273250413652754e+00
4.199999999999999845e-01 2.587309726666406018e+00
4.400000000000000022e-01 2.580248333585344778e+00
4.600000000000000200e-01 2.573090993392786796e+00
4.799999999999999822e-01 2.565839633046229196e+00
5.000000000000000000e-01 2.558496191265320352e+00
5.200000000000000178e-01 2.551062609055648522e+00
5.400000000000000355e-01 2.543540837076681438e+00
5.600000000000000533e-01 2.535932825885375941e+00
5.799999999999999600e-01 2.528240533637269749e+00
5.999999999999999778e-01 2.520465916066853662e+00
6.199999999999999956e-01 2.512610934515075112e+00
6.400000000000000133e-01 2.504677545657534754e+00
6.600000000000000311e-01 2.496667709853009232e+00
6.800000000000000488e-01 2.488583380632192199e+00
7.000000000000000666e-01 2.480426513362070651e+00
7.199999999999999734e-01 2.472199054504357729e+00
7.399999999999999911e-01 2.463902950591028596e+00
7.600000000000000089e-01 2.455540137262723910e+00
7.800000000000000266e-01 2.447112548550639755e+00
8.000000000000000444e-01 2.438622105702825671e+00
8.200000000000000622e-01 2.430070726767660005e+00
8.399999999999999689e-01 2.421460315216759085e+00
8.599999999999999867e-01 2.412792769825008676e+00
8.800000000000000044e-01 2.404069973097153312e+00
9.000000000000000222e-01 2.395293801439177805e+00
9.200000000000000400e-01 2.386466113396202626e+00
9.400000000000000577e-01 2.377588760109725197e+00
9.599999999999999645e-01 2.368663573373187781e+00
9.799999999999999822e-01 2.359692376369332045e+00
1.000000000000000000e+00 2.350676971550274441e+00
1.020000000000000018e+00 2.341619151648859365e+00
1.040000000000000036e+00 2.332520687389116887e+00
1.060000000000000053e+00 2.323383338765267592e+00
1.080000000000000071e+00 2.314208842588752812e+00
1.100000000000000089e+00 2.304998924028204499e+00
1.120000000000000107e+00 2.295755283998524465e+00
1.140000000000000124e+00 2.286479610954860853e+00
1.159999999999999920e+00 2.277173568129488235e+00
1.179999999999999938e+00 2.267838805572516492e+00
1.199999999999999956e+00 2.258476947241774280e+00
1.219999999999999973e+00 2.249089603282738992e+00
1.239999999999999991e+00 2.239678356976822826e+00
1.260000000000000009e+00 2.230244777252782029e+00
1.280000000000000027e+00 2.220790405498374032e+00
1.300000000000000044e+00 2.211316768295255475e+00
1.320000000000000062e+00 2.201825364099228022e+00
1.340000000000000080e+00 2.192317676190405074e+00
1.360000000000000098e+00 2.182795159226914805e+00
1.380000000000000115e+00 2.173259252401949837e+00
1.400000000000000133e+00 2.163711365876011872e+00
1.419999999999999929e+00 2.154152894132264073e+00
1.439999999999999947e+00 2.144585202292155657e+00
1.459999999999999964e+00 2.135009639660367053e+00
1.479999999999999982e+00 2.125427525928855754e+00
1.500000000000000000e+00 2.115840164902529352e+00
1.520000000000000018e+00 2.106248830596606059e+00
1.540000000000000036e+00 2.096654781134017931e+00
1.560000000000000053e+00 2.087059244741181097e+00
1.580000000000000071e+00 2.077463433808068416e+00
1.600000000000000089e+00 2.067868530787352110e+00
1.620000000000000107e+00 2.058275702407973640e+00
1.640000000000000124e+00 2.048686085482875452e+00
1.660000000000000142e+00 2.039100801266823026e+00
1.679999999999999938e+00 2.029520941177840321e+00
1.699999999999999956e+00 2.019947581290016725e+00
1.719999999999999973e+00 2.010381767973990819e+00
1.739999999999999991e+00 2.000824532515400378e+00
1.760000000000000009e+00 1.991276876679750618e+00
1.780000000000000027e+00 1.981739787447120760e+00
1.800000000000000044e+00 1.972214222506971648e+00
1.820000000000000062e+00 1.962701125099738375e+00
1.840000000000000080e+00 1.953201409447112624e+00
1.860000000000000098e+00 1.943715975691114428e+00
1.880000000000000115e+00 1.934245695265626397e+00
1.900000000000000133e+00 1.924791425923562338e+00
1.919999999999999929e+00 1.915353997055410540e+00
1.939999999999999947e+00 1.905934224795134524e+00
1.959999999999999964e+00 1.896532897291738795e+00
1.979999999999999982e+00 1.887150789884491697e+00
2.000000000000000000e+00 1.877788650333582110e+00
2.020000000000000018e+00 1.868447214055318994e+00
2.040000000000000036e+00 1.859127189318117823e+00
2.060000000000000053e+00 1.849829272528348056e+00
2.080000000000000071e+00 1.840554133397945602e+00
2.100000000000000089e+00 1.831302430271618764e+00
2.120000000000000107e+00 1.822074795272602632e+00
2.140000000000000124e+00 1.812871849661935153e+00
2.160000000000000142e+00 1.803694188968920642e+00
2.180000000000000160e+00 1.794542398373234482e+00
2.200000000000000178e+00 1.785417037826869002e+00
2.220000000000000195e+00 1.776318657449861060e+00
2.240000000000000213e+00 1.767247782650525290e+00
2.260000000000000231e+00 1.758204929525651439e+00
2.280000000000000249e+00 1.749190589986022060e+00
2.300000000000000266e+00 1.740205247151953127e+00
2.319999999999999840e+00 1.731249360491151634e+00
2.339999999999999858e+00 1.722323381200513204e+00
2.359999999999999876e+00 1.713427737363561132e+00
2.379999999999999893e+00 1.704562849309440908e+00
2.399999999999999911e+00 1.695729114797215553e+00
2.419999999999999929e+00 1.686926924343068679e+00
2.439999999999999947e+00 1.678156646438887512e+00
2.459999999999999964e+00 1.669418642838706335e+00
2.479999999999999982e+00 1.660713253819070090e+00
2.500000000000000000e+00 1.652040813415775800e+00
2.520000000000000018e+00 1.643401634733672179e+00
2.540000000000000036e+00 1.634796025124798824e+00
2.560000000000000053e+00 1.626224271555295919e+00
2.580000000000000071e+00 1.617686655716080946e+00
2.600000000000000089e+00 1.609183439454689113e+00
2.620000000000000107e+00 1.600714879809669089e+00
2.640000000000000124e+00 1.592281214515189003e+00
2.660000000000000142e+00 1.583882676950370882e+00
2.680000000000000160e+00 1.575519481724639403e+00
2.700000000000000178e+00 1.567191839533225828e+00
2.720000000000000195e+00 1.558899942831259988e+00
2.740000000000000213e+00 1.550643980586713822e+00
2.760000000000000231e+00 1.542424124051361645e+00
2.780000000000000249e+00 1.534240541402456470e+00
2.800000000000000266e+00 1.526093383618676524e+00
2.819999999999999840e+00 1.517982799001880601e+00
2.839999999999999858e+00 1.509908919166258245e+00
2.859999999999999876e+00 1.501871873431527948e+00
2.879999999999999893e+00 1.493871774933537289e+00
2.899999999999999911e+00 1.485908734880259097e+00
2.919999999999999929e+00 1.477982848792208870e+00
2.939999999999999947e+00 1.470094210612615582e+00
2.959999999999999964e+00 1.462242899085988812e+00
2.979999999999999982e+00 1.454428991713913488e+00
3.000000000000000000e+00 1.446652551280171339e+00
3.020000000000000018e+00 1.438913639643603304e+00
3.040000000000000036e+00 1.431212304418200798e+00
3.060000000000000053e+00 1.423548592594490847e+00
3.080000000000000071e+00 1.415922537383104585e+00
3.100000000000000089e+00 1.408334171656161260e+00
3.120000000000000107e+00 1.400783514962772314e+00
3.140000000000000124e+00 1.393270586781940379e+00
3.160000000000000142e+00 1.385795393718552759e+00
3.180000000000000160e+00 1.378357942559285121e+00
3.200000000000000178e+00 1.370958227657623096e+00
3.220000000000000195e+00 1.363596243784316098e+00
3.240000000000000213e+00 1.356271973709984646e+00
3.260000000000000231e+00 1.348985400841672622e+00
3.280000000000000249e+00 1.341736497011632556e+00
3.300000000000000266e+00 1.334525234891507761e+00
3.320000000000000284e+00 1.327351575995915800e+00
3.339999999999999858e+00 1.320215482865834788e+00
3.359999999999999876e+00 1.313116907295570845e+00
3.379999999999999893e+00 1.306055802276933742e+00
3.399999999999999911e+00 1.299032110458236744e+00
3.419999999999999929e+00 1.292045775840829025e+00
3.439999999999999947e+00 1.285096732478737902e+00
3.459999999999999964e+00 1.278184915919200471e+00
3.479999999999999982e+00 1.271310252151557796e+00
3.500000000000000000e+00 1.264472668783388931e+00
3.520000000000000018e+00 1.257672084247306810e+00
3.540000000000000036e+00 1.250908418704321123e+00
3.560000000000000053e+00 1.244181583517161682e+00
3.580000000000000071e+00 1.237491491872486193e+00
3.600000000000000089e+00 1.230838048529391715e+00
3.620000000000000107e+00 1.224221160152110688e+00
3.640000000000000124e+00 1.217640725342313823e+00
3.660000000000000142e+00 1.211096644673966827e+00
3.680000000000000160e+00 1.204588811018056926e+00
3.700000000000000178e+00 1.198117119271240538e+00
3.720000000000000195e+00 1.191681456981643406e+00
3.740000000000000213e+00 1.185281713762969868e+00
3.760000000000000231e+00 1.178917772229964411e+00
3.780000000000000249e+00 1.172589517089684064e+00
3.800000000000000266e+00 1.166296826395223585e+00
3.820000000000000284e+00 1.160039580305819440e+00
3.839999999999999858e+00 1.153817652667467941e+00
3.859999999999999876e+00 1.147630919433536123e+00
3.879999999999999893e+00 1.141479250580860194e+00
3.899999999999999911e+00 1.135362518182564395e+00
3.919999999999999929e+00 1.129280588668230667e+00
3.939999999999999947e+00 1.123233330540628128e+00
3.959999999999999964e+00 1.117220606988523102e+00
3.979999999999999982e+00 1.111242283239024298e+00
4.000000000000000000e+00 1.105298219531621218e+00
4.020000000000000462e+00 1.099388278097841676e+00
4.040000000000000036e+00 1.093512316505063531e+00
4.060000000000000497e+00 1.087670194255230260e+00
4.080000000000000071e+00 1.081861766506970524e+00
4.099999999999999645e+00 1.076086890285106401e+00
4.120000000000000107e+00 1.070345418589600861e+00
4.139999999999999680e+00 1.064637206207579290e+00
4.160000000000000142e+00 1.058962104217665345e+00
4.179999999999999716e+00 1.053319965396241287e+00
4.200000000000000178e+00 1.047710639125658982e+00
4.219999999999999751e+00 1.042133976386492744e+00
4.240000000000000213e+00 1.036589825078152449e+00
4.259999999999999787e+00 1.031078034588856385e+00
4.280000000000000249e+00 1.025598451537117040e+00
4.299999999999999822e+00 1.020150923911205432e+00
4.320000000000000284e+00 1.014735297240003442e+00
4.339999999999999858e+00 1.009351418293683356e+00
4.360000000000000320e+00 1.003999131692425717e+00
4.379999999999999893e+00 9.986782831600480304e-01
4.400000000000000355e+00 9.933887165790503682e-01
4.419999999999999929e+00 9.881302767889832417e-01
4.440000000000000391e+00 9.829028070962241292e-01
4.459999999999999964e+00 9.777061516088682014e-01
4.480000000000000426e+00 9.725401532097198709e-01
4.500000000000000000e+00 9.674046554193953540e-01
4.520000000000000462e+00 9.622995008409983564e-01
4.540000000000000036e+00 9.572245325432228169e-01
4.560000000000000497e+00 9.521795929851099016e-01
4.580000000000000071e+00 9.471645249109126308e-01
4.600000000000000533e+00 9.421791707633742075e-01
4.620000000000000107e+00 9.372233730820946906e-01
4.639999999999999680e+00 9.322969744137729053e-01
4.660000000000000142e+00 9.273998172058293132e-01
4.679999999999999716e+00 9.225317442220072328e-01
4.700000000000000178e+00 9.176925979230105002e-01
4.719999999999999751e+00 9.128822213959065790e-01
4.740000000000000213e+00 9.081004572134955266e-01
4.759999999999999787e+00 9.033471488859375897e-01
4.780000000000000249e+00 8.986221391905919731e-01
4.799999999999999822e+00 8.939252721542978453e-01
4.820000000000000284e+00 8.892563908454121924e-01
4.839999999999999858e+00 8.846153398951447366e-01
4.860000000000000320e+00 8.800019627435364811e-01
4.879999999999999893e+00 8.754161047082622549e-01
4.900000000000000355e+00 8.708576096762700169e-01
4.919999999999999929e+00 8.663263237284734020e-01
4.940000000000000391e+00 8.618220912687536428e-01
4.959999999999999964e+00 8.573447592129713746e-01
4.980000000000000426e+00 8.528941725470343682e-01
5.000000000000000000e+00 8.484701790886559625e-01
5.020000000000000462e+00 8.440726244661728161e-01
5.040000000000000036e+00 8.397013574614906606e-01
5.060000000000000497e+00 8.353562244013290616e-01
5.080000000000000071e+00 8.310370750897939640e-01
5.100000000000000533e+00 8.267437566037123542e-01
5.120000000000000107e+00 8.224761198232938275e-01
5.139999999999999680e+00 8.182340126231896216e-01
5.160000000000000142e+00 8.140172870097154290e-01
5.179999999999999716e+00 8.098257916992631644e-01
5.200000000000000178e+00 8.056593798705661280e-01
5.219999999999999751e+00 8.015179011220754379e-01
5.240000000000000213e+00 7.974012098477546440e-01
5.259999999999999787e+00 7.933091565650072230e-01
5.280000000000000249e+00 7.892415969225230477e-01
5.299999999999999822e+00 7.851983823903363469e-01
5.320000000000000284e+00 7.811793699082231202e-01
5.339999999999999858e+00 7.771844119294484265e-01
5.360000000000000320e+00 7.732133667182785608e-01
5.379999999999999893e+00 7.692660877389143614e-01
5.400000000000000355e+00 7.653424346107017273e-01
5.419999999999999929e+00 7.614422618337464144e-01
5.440000000000000391e+00 7.575654304104129100e-01
5.459999999999999964e+00 7.537117958990939837e-01
5.480000000000000426e+00 7.498812207106039240e-01
5.500000000000000000e+00 7.460735614815510175e-01
5.520000000000000462e+00 7.422886820542695663e-01
5.540000000000000036e+00 7.385264401611941754e-01
5.560000000000000497e+00 7.347867010970211554e-01
5.580000000000000071e+00 7.310693237054456395e-01
5.600000000000000533e+00 7.273741747522451950e-01
5.620000000000000107e+00 7.237011142057533375e-01
5.639999999999999680e+00 7.200500103195776047e-01
5.660000000000000142e+00 7.164207241981099816e-01
5.679999999999999716e+00 7.128131255976670744e-01
5.700000000000000178e+00 7.092270767682856691e-01
5.719999999999999751e+00 7.056624489821057278e-01
5.740000000000000213e+00 7.021191056426819843e-01
5.759999999999999787e+00 6.985969195494311501e-01
5.780000000000000249e+00 6.950957552656537031e-01
5.799999999999999822e+00 6.916154871279477367e-01
5.820000000000000284e+00 6.881559808640685949e-01
5.839999999999999858e+00 6.847171123562268980e-01
5.860000000000000320e+00 6.812987484998882515e-01
5.879999999999999893e+00 6.779007667299388196e-01
5.900000000000000355e+00 6.745230351114647194e-01
5.919999999999999929e+00 6.711654326377936020e-01
5.940000000000000391e+00 6.678278285442582618e-01
5.959999999999999964e+00 6.645101033871956275e-01
5.980000000000000426e+00 6.612121275716151825e-01
6.000000000000000000e+00 6.579337832202888370e-01
6.020000000000000462e+00 6.546749419062151132e-01
6.040000000000000036e+00 6.514354873209619035e-01
6.060000000000000497e+00 6.482152922027779596e-01
6.080000000000000071e+00 6.450142418134082734e-01
6.100000000000000533e+00 6.418322100526001606e-01
6.120000000000000107e+00 6.386690837527331244e-01
6.140000000000000568e+00 6.355247379704056510e-01
6.160000000000000142e+00 6.323990611082059843e-01
6.179999999999999716e+00 6.292919293740550923e-01
6.200000000000000178e+00 6.262032327395390396e-01
6.219999999999999751e+00 6.231328485575576837e-01
6.240000000000000213e+00 6.200806683667257069e-01
6.259999999999999787e+00 6.170465706578351917e-01
6.280000000000000249e+00 6.140304485338634599e-01
6.299999999999999822e+00 6.110321816156868424e-01
6.320000000000000284e+00 6.080516645673361698e-01
6.339999999999999858e+00 6.050887781313145641e-01
6.360000000000000320e+00 6.021434185287909413e-01
6.379999999999999893e+00 5.992154676148240267e-01
6.400000000000000355e+00 5.963048231632608331e-01
6.419999999999999929e+00 5.934113681320577482e-01
6.440000000000000391e+00 5.905350018427671932e-01
6.459999999999999964e+00 5.876756083460707991e-01
6.480000000000000426e+00 5.848330885057784201e-01
6.500000000000000000e+00 5.820073274546198050e-01
6.520000000000000462e+00 5.791982275927853863e-01
6.540000000000000036e+00 5.764056751239218235e-01
6.560000000000000497e+00 5.736295739783232595e-01
6.580000000000000071e+00 5.708698114189970640e-01
6.600000000000000533e+00 5.681262928997090622e-01
6.620000000000000107e+00 5.653989067308762273e-01
6.640000000000000568e+00 5.626875598827698610e-01
6.660000000000000142e+00 5.599921417009064983e-01
6.679999999999999716e+00 5.573125606647933994e-01
6.700000000000000178e+00 5.546487071424025528e-01
6.719999999999999751e+00 5.520004911149462012e-01
6.740000000000000213e+00 5.493678039598959284e-01
6.759999999999999787e+00 5.467505571523904040e-01
6.780000000000000249e+00 5.441486430661697238e-01
6.799999999999999822e+00 5.415619746623037134e-01
6.820000000000000284e+00 5.389904452973032223e-01
6.839999999999999858e+00 5.364339694099826694e-01
6.860000000000000320e+00 5.338924413258991919e-01
6.879999999999999893e+00 5.313657769532548203e-01
6.900000000000000355e+00 5.288538715727036932e-01
6.919999999999999929e+00 5.263566425533351412e-01
6.940000000000000391e+00 5.238739861167666101e-01
6.959999999999999964e+00 5.214058210843340868e-01
6.980000000000000426e+00 5.189520446043028867e-01
7.000000000000000000e+00 5.165125769415220836e-01
7.020000000000000462e+00 5.140873161564281091e-01
7.040000000000000036e+00 5.116761839485590713e-01
7.060000000000000497e+00 5.092790792758981055e-01
7.080000000000000071e+00 5.068959252637694757e-01
7.100000000000000533e+00 5.045266217529648101e-01
7.120000000000000107e+00 5.021710932856401355e-01
7.140000000000000568e+00 4.998292405705279662e-01
7.160000000000000142e+00 4.975009895576259500e-01
7.179999999999999716e+00 4.951862418086483975e-01
7.200000000000000178e+00 4.928849246724114619e-01
7.219999999999999751e+00 4.905969405485651191e-01
7.240000000000000213e+00 4.883222181757120306e-01
7.259999999999999787e+00 4.860606607763140463e-01
7.280000000000000249e+00 4.838121984697307809e-01
7.299999999999999822e+00 4.815767352860392814e-01
7.320000000000000284e+00 4.793542027163400499e-01
7.339999999999999858e+00 4.771445055830906834e-01
7.360000000000000320e+00 4.749475767401374338e-01
7.379999999999999893e+00 4.727633217870235161e-01
7.400000000000000355e+00 4.705916749313809877e-01
7.419999999999999929e+00 4.684325425345174931e-01
7.440000000000000391e+00 4.662858601489446309e-01
7.459999999999999964e+00 4.641515348823690990e-01
7.480000000000000426e+00 4.620295036233261765e-01
7.500000000000000000e+00 4.599196742105505220e-01
7.520000000000000462e+00 4.578219848598060193e-01
7.540000000000000036e+00 4.557363441254698166e-01
7.560000000000000497e+00 4.536626915418126571e-01
7.580000000000000071e+00 4.516009363634505003e-01
7.600000000000000533e+00 4.495510194345209154e-01
7.620000000000000107e+00 4.475128506944870965e-01
7.640000000000000568e+00 4.454863722888043331e-01
7.660000000000000142e+00 4.434714948263790424e-01
7.679999999999999716e+00 4.414681617455302187e-01
7.700000000000000178e+00 4.394762843092240856e-01
7.719999999999999751e+00 4.374958072402790332e-01
7.740000000000000213e+00 4.355266424403548275e-01
7.759999999999999787e+00 4.335687359085274029e-01
7.780000000000000249e+00 4.316220001697859687e-01
7.799999999999999822e+00 4.296863824913305097e-01
7.820000000000000284e+00 4.277617960061479985e-01
7.839999999999999858e+00 4.258481892415449388e-01
7.860000000000000320e+00 4.239454759231993664e-01
7.879999999999999893e+00 4.220536058306302296e-01
