# Electrodo circular de radio 6 mm y espesor 710.0 um.
# Volumen de simulacion (convencion z,y,x):
# N: 1024 x 1024 x 1024 | voxelSize:  0.02mm x 0.02mm x 0.02mm | FOV:  20.48mm x 20.48mm x 20.48mm
# 
# z [mm]		 delta[ppm]
0.000000000000000000e+00 6.698610507741570075e+00
2.000000000000000042e-02 6.213264542048785088e+00
4.000000000000000083e-02 5.749387984458049772e+00
5.999999999999999778e-02 5.317325622729833334e+00
8.000000000000000167e-02 4.923024552011261434e+00
1.000000000000000056e-01 4.568418467497600943e+00
1.199999999999999956e-01 4.252511405720458271e+00
1.400000000000000133e-01 3.972545536846581182e+00
1.600000000000000033e-01 3.724931827005394158e+00
1.799999999999999933e-01 3.505870808311892795e+00
2.000000000000000111e-01 3.311711970276517647e+00
2.200000000000000011e-01 3.139130539705061285e+00
2.399999999999999911e-01 2.985192261173242212e+00
2.600000000000000089e-01 2.847355519315143191e+00
2.800000000000000266e-01 2.723442732730273264e+00
2.999999999999999889e-01 2.611599047592414902e+00
3.200000000000000067e-01 2.510248553016289463e+00
3.400000000000000244e-01 2.418052716596500673e+00
3.599999999999999867e-01 2.333873329771586125e+00
3.800000000000000044e-01 2.256740410796770124e+00
4.000000000000000222e-01 2.185825035273709638e+00
4.199999999999999845e-01 2.120416522440078833e+00
4.400000000000000022e-01 2.059903460145955822e+00
4.600000000000000200e-01 2.003757934097092352e+00
4.799999999999999822e-01 1.951522460032042883e+00
5.000000000000000000e-01 1.902799139206018841e+00
5.200000000000000178e-01 1.857240646931318073e+00
5.400000000000000355e-01 1.814542738451385029e+00
5.600000000000000533e-01 1.774437981089874050e+00
5.799999999999999600e-01 1.736690524862770202e+00
5.999999999999999778e-01 1.701091689835003251e+00
6.199999999999999956e-01 1.667456274049397003e+00
6.400000000000000133e-01 1.635619403929558846e+00
6.600000000000000311e-01 1.605433895393814980e+00
6.800000000000000488e-01 1.576767973221039343e+00
7.000000000000000666e-01 1.549503362160091768e+00
7.199999999999999734e-01 1.523533611131852261e+00
7.399999999999999911e-01 1.498762696776314796e+00
7.600000000000000089e-01 1.475103774128381673e+00
7.800000000000000266e-01 1.452478144609694821e+00
8.000000000000000444e-01 1.430814310935433875e+00
8.200000000000000622e-01 1.410047207648877921e+00
8.399999999999999689e-01 1.390117475960755078e+00
8.599999999999999867e-01 1.370970885821304108e+00
8.800000000000000044e-01 1.352557771299321310e+00
9.000000000000000222e-01 1.334832594080232804e+00
9.200000000000000400e-01 1.317753497643727512e+00
9.400000000000000577e-01 1.301281976418318331e+00
9.599999999999999645e-01 1.285382518423636711e+00
9.799999999999999822e-01 1.270022354229178640e+00
1.000000000000000000e+00 1.255171166483434853e+00
1.020000000000000018e+00 1.240800899803639279e+00
1.040000000000000036e+00 1.226885520927987416e+00
1.060000000000000053e+00 1.213400875590437966e+00
1.080000000000000071e+00 1.200324487727073119e+00
1.100000000000000089e+00 1.187635452944857395e+00
1.120000000000000107e+00 1.175314267639250732e+00
1.140000000000000124e+00 1.163342751220215243e+00
1.159999999999999920e+00 1.151703898765123801e+00
1.179999999999999938e+00 1.140381826055110182e+00
1.199999999999999956e+00 1.129361640373040432e+00
1.219999999999999973e+00 1.118629403779411557e+00
1.239999999999999991e+00 1.108172018486928811e+00
1.260000000000000009e+00 1.097977204850592470e+00
1.280000000000000027e+00 1.088033397978814598e+00
1.300000000000000044e+00 1.078329737679220468e+00
1.320000000000000062e+00 1.068855974314976809e+00
1.340000000000000080e+00 1.059602468548082266e+00
1.360000000000000098e+00 1.050560104256560656e+00
1.380000000000000115e+00 1.041720296357085740e+00
1.400000000000000133e+00 1.033074909710138600e+00
1.419999999999999929e+00 1.024616273660909904e+00
1.439999999999999947e+00 1.016337105416903697e+00
1.459999999999999964e+00 1.008230530204703657e+00
1.479999999999999982e+00 1.000290008600859482e+00
1.500000000000000000e+00 9.925093614220259486e-01
1.520000000000000018e+00 9.848826998887663109e-01
1.540000000000000036e+00 9.774044545214077839e-01
1.560000000000000053e+00 9.700693079630302584e-01
1.580000000000000071e+00 9.628722272935912319e-01
1.600000000000000089e+00 9.558083986284711120e-01
1.620000000000000107e+00 9.488732623571862757e-01
1.640000000000000124e+00 9.420624495668233900e-01
1.660000000000000142e+00 9.353718198043086129e-01
1.679999999999999938e+00 9.287973985836323054e-01
1.699999999999999956e+00 9.223354173274881385e-01
1.719999999999999973e+00 9.159822521570355480e-01
1.739999999999999991e+00 9.097344657322633532e-01
1.760000000000000009e+00 9.035887466683644176e-01
1.780000000000000027e+00 8.975419530282301439e-01
1.800000000000000044e+00 8.915910526681305459e-01
1.820000000000000062e+00 8.857331681811277946e-01
1.840000000000000080e+00 8.799655175655245465e-01
1.860000000000000098e+00 8.742854604375959182e-01
1.880000000000000115e+00 8.686904394008521102e-01
1.900000000000000133e+00 8.631780273802954762e-01
1.919999999999999929e+00 8.577458691125439127e-01
1.939999999999999947e+00 8.523917294641599751e-01
1.959999999999999964e+00 8.471134354776691522e-01
1.979999999999999982e+00 8.419089255627389967e-01
2.000000000000000000e+00 8.367761915299666287e-01
2.020000000000000018e+00 8.317133285479542115e-01
2.040000000000000036e+00 8.267184776448875949e-01
2.060000000000000053e+00 8.217898763458086897e-01
2.080000000000000071e+00 8.169258010758922994e-01
2.100000000000000089e+00 8.121246183923858108e-01
2.120000000000000107e+00 8.073847278066734745e-01
2.140000000000000124e+00 8.027046135433135721e-01
2.160000000000000142e+00 7.980827872101989851e-01
2.180000000000000160e+00 7.935178400144994315e-01
2.200000000000000178e+00 7.890083858297298747e-01
2.220000000000000195e+00 7.845531138141229599e-01
2.240000000000000213e+00 7.801507312948116057e-01
2.260000000000000231e+00 7.758000167295661109e-01
2.280000000000000249e+00 7.714997629850243177e-01
2.300000000000000266e+00 7.672488305969719091e-01
2.319999999999999840e+00 7.630460908504822504e-01
2.339999999999999858e+00 7.588904792879493932e-01
2.359999999999999876e+00 7.547809391937445600e-01
2.379999999999999893e+00 7.507164753123757306e-01
2.399999999999999911e+00 7.466960971309345441e-01
2.419999999999999929e+00 7.427188727628186715e-01
2.439999999999999947e+00 7.387838726545522539e-01
2.459999999999999964e+00 7.348902236029606350e-01
2.479999999999999982e+00 7.310370522633706791e-01
2.500000000000000000e+00 7.272235392604620152e-01
2.520000000000000018e+00 7.234488631472489883e-01
2.540000000000000036e+00 7.197122545818073203e-01
2.560000000000000053e+00 7.160129400965253854e-01
2.580000000000000071e+00 7.123501963046752206e-01
2.600000000000000089e+00 7.087232941513774698e-01
2.620000000000000107e+00 7.051315531256695524e-01
2.640000000000000124e+00 7.015742853341689900e-01
2.660000000000000142e+00 6.980508496855974965e-01
2.680000000000000160e+00 6.945605964801649934e-01
2.700000000000000178e+00 6.911029215449616681e-01
2.720000000000000195e+00 6.876772106608083357e-01
2.740000000000000213e+00 6.842828936179348176e-01
2.760000000000000231e+00 6.809193891945259924e-01
2.780000000000000249e+00 6.775861591134523243e-01
2.800000000000000266e+00 6.742826528743669501e-01
2.819999999999999840e+00 6.710083615829346426e-01
2.839999999999999858e+00 6.677627633717936328e-01
2.859999999999999876e+00 6.645453770850187070e-01
2.879999999999999893e+00 6.613557075693841103e-01
2.899999999999999911e+00 6.581932991872684324e-01
2.919999999999999929e+00 6.550576817345172831e-01
2.939999999999999947e+00 6.519484237662305226e-01
2.959999999999999964e+00 6.488650784018127338e-01
2.979999999999999982e+00 6.458072364383554698e-01
3.000000000000000000e+00 6.427744728201649771e-01
3.020000000000000018e+00 6.397663995257431013e-01
3.040000000000000036e+00 6.367826119410795460e-01
3.060000000000000053e+00 6.338227414962552819e-01
3.080000000000000071e+00 6.308864027409104569e-01
3.100000000000000089e+00 6.279732457178315297e-01
3.120000000000000107e+00 6.250829029582253282e-01
3.140000000000000124e+00 6.222150415695183456e-01
3.160000000000000142e+00 6.193693109700442179e-01
3.180000000000000160e+00 6.165453946796998208e-01
3.200000000000000178e+00 6.137429579896465093e-01
3.220000000000000195e+00 6.109616994341481311e-01
3.240000000000000213e+00 6.082012992362629822e-01
3.260000000000000231e+00 6.054614704506826595e-01
3.280000000000000249e+00 6.027419073586759435e-01
3.300000000000000266e+00 6.000423362612339329e-01
3.320000000000000284e+00 5.973624646858299858e-01
3.339999999999999858e+00 5.947020318208018352e-01
3.359999999999999876e+00 5.920607576844858499e-01
3.379999999999999893e+00 5.894383931810740496e-01
3.399999999999999911e+00 5.868346701165060297e-01
3.419999999999999929e+00 5.842493508677684133e-01
3.439999999999999947e+00 5.816821783730816708e-01
3.459999999999999964e+00 5.791329253957647749e-01
3.479999999999999982e+00 5.766013453951472911e-01
3.500000000000000000e+00 5.740872213779774080e-01
3.520000000000000018e+00 5.715903167542464303e-01
3.540000000000000036e+00 5.691104237580784098e-01
3.560000000000000053e+00 5.666473152172543104e-01
3.580000000000000071e+00 5.642007925374964428e-01
3.600000000000000089e+00 5.617706374662133628e-01
3.620000000000000107e+00 5.593566596229084809e-01
3.640000000000000124e+00 5.569586492085494278e-01
3.660000000000000142e+00 5.545764240769527342e-01
3.680000000000000160e+00 5.522097824462846027e-01
3.700000000000000178e+00 5.498585494948754482e-01
3.720000000000000195e+00 5.475225310492308761e-01
3.740000000000000213e+00 5.452015597000132718e-01
3.760000000000000231e+00 5.428954484987110751e-01
3.780000000000000249e+00 5.406040365779632983e-01
3.800000000000000266e+00 5.383271438545433885e-01
3.820000000000000284e+00 5.360646161506044116e-01
3.839999999999999858e+00 5.338162799104707590e-01
3.859999999999999876e+00 5.315819868076482324e-01
3.879999999999999893e+00 5.293615694966816720e-01
3.899999999999999911e+00 5.271548857033642177e-01
3.919999999999999929e+00 5.249617739941131456e-01
3.939999999999999947e+00 5.227820973348661360e-01
3.959999999999999964e+00 5.206156999232320892e-01
3.979999999999999982e+00 5.184624502142836100e-01
4.000000000000000000e+00 5.163221977725859224e-01
4.020000000000000462e+00 5.141948157509775852e-01
4.040000000000000036e+00 5.120801588320663678e-01
4.060000000000000497e+00 5.099781051590241976e-01
4.080000000000000071e+00 5.078885142978930567e-01
4.099999999999999645e+00 5.058112686070650454e-01
4.120000000000000107e+00 5.037462323147497978e-01
4.139999999999999680e+00 5.016932923268985212e-01
4.160000000000000142e+00 4.996523173250857486e-01
4.179999999999999716e+00 4.976231980000869748e-01
4.200000000000000178e+00 4.956058072896737943e-01
4.219999999999999751e+00 4.936000400383699915e-01
4.240000000000000213e+00 4.916057732538753888e-01
4.259999999999999787e+00 4.896229051807355348e-01
4.280000000000000249e+00 4.876513167205006605e-01
4.299999999999999822e+00 4.856909099205163338e-01
4.320000000000000284e+00 4.837415694096426910e-01
4.339999999999999858e+00 4.818032002903983035e-01
4.360000000000000320e+00 4.798756907613547784e-01
4.379999999999999893e+00 4.779589494145434769e-01
4.400000000000000355e+00 4.760528678690300053e-01
4.419999999999999929e+00 4.741573574622799381e-01
4.440000000000000391e+00 4.722723130924970647e-01
4.459999999999999964e+00 4.703976493065135656e-01
4.480000000000000426e+00 4.685332641477042981e-01
4.500000000000000000e+00 4.666790746295040870e-01
4.520000000000000462e+00 4.648349818134074884e-01
4.540000000000000036e+00 4.630009056713453863e-01
4.560000000000000497e+00 4.611767501624018384e-01
4.580000000000000071e+00 4.593624374735731375e-01
4.600000000000000533e+00 4.575578743471236387e-01
4.620000000000000107e+00 4.557629857035611631e-01
4.639999999999999680e+00 4.539776809596814955e-01
4.660000000000000142e+00 4.522018870236605426e-01
4.679999999999999716e+00 4.504355158835962047e-01
4.700000000000000178e+00 4.486784969791612898e-01
4.719999999999999751e+00 4.469307447716344694e-01
4.740000000000000213e+00 4.451921904823578635e-01
4.759999999999999787e+00 4.434627509524819988e-01
4.780000000000000249e+00 4.417423597532367796e-01
4.799999999999999822e+00 4.400309360168661033e-01
4.820000000000000284e+00 4.383284149092795956e-01
4.839999999999999858e+00 4.366347177693158388e-01
4.860000000000000320e+00 4.349497819493536865e-01
4.879999999999999893e+00 4.332735309143649349e-01
4.900000000000000355e+00 4.316059034413285422e-01
4.919999999999999929e+00 4.299468250446968343e-01
4.940000000000000391e+00 4.282962365407305683e-01
4.959999999999999964e+00 4.266540654203149208e-01
4.980000000000000426e+00 4.250202537693064664e-01
5.000000000000000000e+00 4.233947309853720586e-01
5.020000000000000462e+00 4.217774410609808622e-01
5.040000000000000036e+00 4.201683152341430527e-01
5.060000000000000497e+00 4.185672986253987649e-01
5.080000000000000071e+00 4.169743242497143121e-01
5.100000000000000533e+00 4.153893390145825260e-01
5.120000000000000107e+00 4.138122776514137069e-01
5.139999999999999680e+00 4.122430880662807939e-01
5.160000000000000142e+00 4.106817066492515766e-01
5.179999999999999716e+00 4.091280829853818912e-01
5.200000000000000178e+00 4.075821550681903438e-01
5.219999999999999751e+00 4.060438733626152708e-01
5.240000000000000213e+00 4.045131774128730151e-01
5.259999999999999787e+00 4.029900192654262692e-01
5.280000000000000249e+00 4.014743399647465183e-01
5.299999999999999822e+00 3.999660923281581071e-01
5.320000000000000284e+00 3.984652188521463079e-01
5.339999999999999858e+00 3.969716738475891904e-01
5.360000000000000320e+00 3.954854012168337318e-01
5.379999999999999893e+00 3.940063559412881888e-01
5.400000000000000355e+00 3.925344832849960164e-01
5.419999999999999929e+00 3.910697396434928974e-01
5.440000000000000391e+00 3.896120716002271500e-01
5.459999999999999964e+00 3.881614361287515913e-01
5.480000000000000426e+00 3.867177810914175784e-01
5.500000000000000000e+00 3.852810648042290786e-01
5.520000000000000462e+00 3.838512363696340302e-01
5.540000000000000036e+00 3.824282545961773527e-01
5.560000000000000497e+00 3.810120697892177000e-01
5.580000000000000071e+00 3.796026420350862018e-01
5.600000000000000533e+00 3.781999228063990248e-01
5.620000000000000107e+00 3.768038726028881125e-01
5.639999999999999680e+00 3.754144440302369379e-01
5.660000000000000142e+00 3.740315988076684528e-01
5.679999999999999716e+00 3.726552906411292332e-01
5.700000000000000178e+00 3.712854815898253835e-01
5.719999999999999751e+00 3.699221264284960897e-01
5.740000000000000213e+00 3.685651883833266362e-01
5.759999999999999787e+00 3.672146232676324340e-01
5.780000000000000249e+00 3.658703945793218559e-01
5.799999999999999822e+00 3.645324591412777426e-01
5.820000000000000284e+00 3.632007815711541521e-01
5.839999999999999858e+00 3.618753196735303157e-01
5.860000000000000320e+00 3.605560382741858638e-01
5.879999999999999893e+00 3.592428961326304404e-01
5.900000000000000355e+00 3.579358591519580801e-01
5.919999999999999929e+00 3.566348870208786992e-01
5.940000000000000391e+00 3.553399457912216897e-01
5.959999999999999964e+00 3.540509960561663005e-01
5.980000000000000426e+00 3.527680049068173118e-01
6.000000000000000000e+00 3.514909338170399966e-01
6.020000000000000462e+00 3.502197499710905104e-01
6.040000000000000036e+00 3.489544157006447267e-01
6.060000000000000497e+00 3.476948991952170109e-01
6.080000000000000071e+00 3.464411636222881619e-01
6.100000000000000533e+00 3.451931772123755238e-01
6.120000000000000107e+00 3.439509039475838748e-01
6.140000000000000568e+00 3.427143130333588639e-01
6.160000000000000142e+00 3.414833692460416681e-01
6.179999999999999716e+00 3.402580417830421422e-01
6.200000000000000178e+00 3.390382961953125052e-01
6.219999999999999751e+00 3.378241026282380322e-01
6.240000000000000213e+00 3.366154273884766623e-01
6.259999999999999787e+00 3.354122405671456364e-01
6.280000000000000249e+00 3.342145092083989022e-01
6.299999999999999822e+00 3.330222043274934096e-01
6.320000000000000284e+00 3.318352936885337612e-01
6.339999999999999858e+00 3.306537482088123814e-01
6.360000000000000320e+00 3.294775363554738878e-01
6.379999999999999893e+00 3.283066299489779127e-01
6.400000000000000355e+00 3.271409981432122915e-01
6.419999999999999929e+00 3.259806126192640874e-01
6.440000000000000391e+00 3.248254432020449278e-01
6.459999999999999964e+00 3.236754624574834094e-01
6.480000000000000426e+00 3.225306408663620727e-01
6.500000000000000000e+00 3.213909508158958039e-01
6.520000000000000462e+00 3.202563634281173077e-01
6.540000000000000036e+00 3.191268519591970998e-01
6.560000000000000497e+00 3.180023881583166623e-01
6.580000000000000071e+00 3.168829450654476187e-01
6.600000000000000533e+00 3.157684950433127802e-01
6.620000000000000107e+00 3.146590119872204050e-01
6.640000000000000568e+00 3.135544688603014163e-01
6.660000000000000142e+00 3.124548393058487195e-01
6.679999999999999716e+00 3.113600968747232134e-01
6.700000000000000178e+00 3.102702160540326548e-01
6.719999999999999751e+00 3.091851709701279871e-01
6.740000000000000213e+00 3.081049358237936686e-01
6.759999999999999787e+00 3.070294853050477002e-01
6.780000000000000249e+00 3.059587944489224332e-01
6.799999999999999822e+00 3.048928384976933303e-01
6.820000000000000284e+00 3.038315921670926567e-01
6.839999999999999858e+00 3.027750312406329303e-01
6.860000000000000320e+00 3.017231312605358484e-01
6.879999999999999893e+00 3.006758685408957854e-01
6.900000000000000355e+00 2.996332182728634885e-01
6.919999999999999929e+00 2.985951572908261409e-01
6.940000000000000391e+00 2.975616616063728737e-01
6.959999999999999964e+00 2.965327085642374128e-01
6.980000000000000426e+00 2.955082737942244520e-01
7.000000000000000000e+00 2.944883351418093320e-01
7.020000000000000462e+00 2.934728690527661499e-01
7.040000000000000036e+00 2.924618538640222920e-01
7.060000000000000497e+00 2.914552656097950667e-01
7.080000000000000071e+00 2.904530831094837007e-01
7.100000000000000533e+00 2.894552832102991746e-01
7.120000000000000107e+00 2.884618452054354965e-01
7.140000000000000568e+00 2.874727455015989586e-01
7.160000000000000142e+00 2.864879638573892828e-01
7.179999999999999716e+00 2.855074774909229229e-01
7.200000000000000178e+00 2.845312666180905281e-01
7.219999999999999751e+00 2.835593079882789413e-01
7.240000000000000213e+00 2.825915822668285116e-01
7.259999999999999787e+00 2.816280670142718434e-01
7.280000000000000249e+00 2.806687433378103336e-01
7.299999999999999822e+00 2.797135883016427793e-01
7.320000000000000284e+00 2.787625834474974362e-01
7.339999999999999858e+00 2.778157066516989127e-01
7.360000000000000320e+00 2.768729398834091082e-01
7.379999999999999893e+00 2.759342604955489220e-01
7.400000000000000355e+00 2.749996508778548288e-01
7.419999999999999929e+00 2.740690891975247623e-01
7.440000000000000391e+00 2.731425582582370226e-01
7.459999999999999964e+00 2.722200356771583563e-01
7.480000000000000426e+00 2.713015046654922990e-01
7.500000000000000000e+00 2.703869436579570129e-01
7.520000000000000462e+00 2.694763362670733464e-01
7.540000000000000036e+00 2.685696603512758296e-01
7.560000000000000497e+00 2.676668999184058095e-01
7.580000000000000071e+00 2.667680336487838755e-01
7.600000000000000533e+00 2.658730459397662393e-01
7.620000000000000107e+00 2.649819148694212423e-01
7.640000000000000568e+00 2.640946252190125021e-01
7.660000000000000142e+00 2.632111558938541873e-01
7.679999999999999716e+00 2.623314920536894967e-01
7.700000000000000178e+00 2.614556119758313923e-01
7.719999999999999751e+00 2.605835011932605694e-01
7.740000000000000213e+00 2.597151388168638109e-01
7.759999999999999787e+00 2.588505107477898637e-01
7.780000000000000249e+00 2.579895954433324978e-01
7.799999999999999822e+00 2.571323791679058779e-01
7.820000000000000284e+00 2.562788412196455590e-01
7.839999999999999858e+00 2.554289682214954116e-01
7.860000000000000320e+00 2.545827387924969876e-01
7.879999999999999893e+00 2.537401399095503551e-01
