# Electrodo circular de radio 6 mm y espesor 710.0 um.
# Volumen de simulacion (convencion z,y,x):
# N: 1024 x 1024 x 1024 | voxelSize:  0.02mm x 0.02mm x 0.02mm | FOV:  20.48mm x 20.48mm x 20.48mm
# 
# z [mm]		 delta[ppm]
0.000000000000000000e+00 2.443424609744467180e+00
2.000000000000000042e-02 2.440616106344572600e+00
4.000000000000000083e-02 2.437723027895776440e+00
5.999999999999999778e-02 2.434745925391570864e+00
8.000000000000000167e-02 2.431685359994986140e+00
1.000000000000000056e-01 2.428541910196024833e+00
1.199999999999999956e-01 2.425316169613378037e+00
1.400000000000000133e-01 2.422008747072116996e+00
1.600000000000000033e-01 2.418620263002694060e+00
1.799999999999999933e-01 2.415151353051598004e+00
2.000000000000000111e-01 2.411602663268760161e+00
2.200000000000000011e-01 2.407974854416299770e+00
2.399999999999999911e-01 2.404268597010996267e+00
2.600000000000000089e-01 2.400484575798077724e+00
2.800000000000000266e-01 2.396623484590243880e+00
2.999999999999999889e-01 2.392686030924723983e+00
3.200000000000000067e-01 2.388672930716683407e+00
3.400000000000000244e-01 2.384584913098684034e+00
3.599999999999999867e-01 2.380422714873859924e+00
3.800000000000000044e-01 2.376187085545060196e+00
4.000000000000000222e-01 2.371878781570720740e+00
4.199999999999999845e-01 2.367498571583662503e+00
4.400000000000000022e-01 2.363047230450076253e+00
4.600000000000000200e-01 2.358525544678537589e+00
4.799999999999999822e-01 2.353934306283993472e+00
5.000000000000000000e-01 2.349274318385746962e+00
5.200000000000000178e-01 2.344546388880450749e+00
5.400000000000000355e-01 2.339751336227688494e+00
5.600000000000000533e-01 2.334889982934155395e+00
5.799999999999999600e-01 2.329963161524907456e+00
5.999999999999999778e-01 2.324971707843748625e+00
6.199999999999999956e-01 2.319916467207937316e+00
6.400000000000000133e-01 2.314798287527469967e+00
6.600000000000000311e-01 2.309618025640806760e+00
6.800000000000000488e-01 2.304376540258422867e+00
7.000000000000000666e-01 2.299074698476823553e+00
7.199999999999999734e-01 2.293713368549533005e+00
7.399999999999999911e-01 2.288293426576567313e+00
7.600000000000000089e-01 2.282815749108324965e+00
7.800000000000000266e-01 2.277281220007419282e+00
8.000000000000000444e-01 2.271690722889052161e+00
8.200000000000000622e-01 2.266045148152004973e+00
8.399999999999999689e-01 2.260345385261019580e+00
8.599999999999999867e-01 2.254592329943509998e+00
8.800000000000000044e-01 2.248786876317883543e+00
9.000000000000000222e-01 2.242929924252430762e+00
9.200000000000000400e-01 2.237022371345144478e+00
9.400000000000000577e-01 2.231065120441053651e+00
9.599999999999999645e-01 2.225059071467736960e+00
9.799999999999999822e-01 2.219005129107260554e+00
1.000000000000000000e+00 2.212904194492987919e+00
1.020000000000000018e+00 2.206757173032066088e+00
1.040000000000000036e+00 2.200564965967984232e+00
1.060000000000000053e+00 2.194328478349479195e+00
1.080000000000000071e+00 2.188048610464456090e+00
1.100000000000000089e+00 2.181726265950993060e+00
1.120000000000000107e+00 2.175362343107288154e+00
1.140000000000000124e+00 2.168957743140323302e+00
1.159999999999999920e+00 2.162513361357524033e+00
1.179999999999999938e+00 2.156030095548459258e+00
1.199999999999999956e+00 2.149508837063076605e+00
1.219999999999999973e+00 2.142950479321734214e+00
1.239999999999999991e+00 2.136355908785711133e+00
1.260000000000000009e+00 2.129726013590712341e+00
1.280000000000000027e+00 2.123061674414675526e+00
1.300000000000000044e+00 2.116363773229760437e+00
1.320000000000000062e+00 2.109633184073236301e+00
1.340000000000000080e+00 2.102870781912821396e+00
1.360000000000000098e+00 2.096077433325827855e+00
1.380000000000000115e+00 2.089254005472612086e+00
1.400000000000000133e+00 2.082401356689809635e+00
1.419999999999999929e+00 2.075520345566526981e+00
1.439999999999999947e+00 2.068611821456978639e+00
1.459999999999999964e+00 2.061676633653938495e+00
1.479999999999999982e+00 2.054715621826687322e+00
1.500000000000000000e+00 2.047729625286100585e+00
1.520000000000000018e+00 2.040719473353379776e+00
1.540000000000000036e+00 2.033685994711027956e+00
1.560000000000000053e+00 2.026630007708362768e+00
1.580000000000000071e+00 2.019552329792554612e+00
1.600000000000000089e+00 2.012453767756472445e+00
1.620000000000000107e+00 2.005335127243867532e+00
1.640000000000000124e+00 1.998197202945608764e+00
1.660000000000000142e+00 1.991040788172951270e+00
1.679999999999999938e+00 1.983866665007874452e+00
1.699999999999999956e+00 1.976675613938290388e+00
1.719999999999999973e+00 1.969468403968625436e+00
1.739999999999999991e+00 1.962245802310717435e+00
1.760000000000000009e+00 1.955008564460472442e+00
1.780000000000000027e+00 1.947757443938100463e+00
1.800000000000000044e+00 1.940493182337089673e+00
1.820000000000000062e+00 1.933216519107333387e+00
1.840000000000000080e+00 1.925928181582377219e+00
1.860000000000000098e+00 1.918628894798916074e+00
1.880000000000000115e+00 1.911319371508629406e+00
1.900000000000000133e+00 1.904000322027439740e+00
1.919999999999999929e+00 1.896672444237997857e+00
1.939999999999999947e+00 1.889336433462023956e+00
1.959999999999999964e+00 1.881992972459857194e+00
1.979999999999999982e+00 1.874642741319085593e+00
2.000000000000000000e+00 1.867286407457363850e+00
2.020000000000000018e+00 1.859924635520492142e+00
2.040000000000000036e+00 1.852558077394998337e+00
2.060000000000000053e+00 1.845187382108744556e+00
2.080000000000000071e+00 1.837813185859577203e+00
2.100000000000000089e+00 1.830436121911476421e+00
2.120000000000000107e+00 1.823056810645882653e+00
2.140000000000000124e+00 1.815675869446322643e+00
2.160000000000000142e+00 1.808293902778830731e+00
2.180000000000000160e+00 1.800911512057933095e+00
2.200000000000000178e+00 1.793529285762871517e+00
2.220000000000000195e+00 1.786147809277753407e+00
2.240000000000000213e+00 1.778767655050116803e+00
2.260000000000000231e+00 1.771389392398007301e+00
2.280000000000000249e+00 1.764013577717677972e+00
2.300000000000000266e+00 1.756640764250289033e+00
2.319999999999999840e+00 1.749271492345404688e+00
2.339999999999999858e+00 1.741906299179952988e+00
2.359999999999999876e+00 1.734545709084423404e+00
2.379999999999999893e+00 1.727190243206681464e+00
2.399999999999999911e+00 1.719840409907613887e+00
2.419999999999999929e+00 1.712496714362354622e+00
2.439999999999999947e+00 1.705159649032387037e+00
2.459999999999999964e+00 1.697829703196653606e+00
2.479999999999999982e+00 1.690507353506991883e+00
2.500000000000000000e+00 1.683193073441592746e+00
2.520000000000000018e+00 1.675887323950857377e+00
2.540000000000000036e+00 1.668590562825605250e+00
2.560000000000000053e+00 1.661303235440340531e+00
2.580000000000000071e+00 1.654025784028572366e+00
2.600000000000000089e+00 1.646758638530673391e+00
2.620000000000000107e+00 1.639502225768651567e+00
2.640000000000000124e+00 1.632256960405680024e+00
2.660000000000000142e+00 1.625023254012602614e+00
2.680000000000000160e+00 1.617801506146433033e+00
2.700000000000000178e+00 1.610592113300837402e+00
2.720000000000000195e+00 1.603395460110781823e+00
2.740000000000000213e+00 1.596211928179214201e+00
2.760000000000000231e+00 1.589041887415246990e+00
2.780000000000000249e+00 1.581885704729218078e+00
2.800000000000000266e+00 1.574743735511677123e+00
2.819999999999999840e+00 1.567616332188993100e+00
2.839999999999999858e+00 1.560503835850605814e+00
2.859999999999999876e+00 1.553406584657306855e+00
2.879999999999999893e+00 1.546324905624126611e+00
2.899999999999999911e+00 1.539259122873377406e+00
2.919999999999999929e+00 1.532209549580755059e+00
2.939999999999999947e+00 1.525176496065172804e+00
2.959999999999999964e+00 1.518160261905556085e+00
2.979999999999999982e+00 1.511161143859527156e+00
3.000000000000000000e+00 1.504179428158507914e+00
3.020000000000000018e+00 1.497215398247277118e+00
3.040000000000000036e+00 1.490269327264925892e+00
3.060000000000000053e+00 1.483341485597276632e+00
3.080000000000000071e+00 1.476432133551426773e+00
3.100000000000000089e+00 1.469541528712969836e+00
3.120000000000000107e+00 1.462669918821767778e+00
3.140000000000000124e+00 1.455817548925925742e+00
3.160000000000000142e+00 1.448984654466590083e+00
3.180000000000000160e+00 1.442171468220572850e+00
3.200000000000000178e+00 1.435378213601901320e+00
3.220000000000000195e+00 1.428605111385018445e+00
3.240000000000000213e+00 1.421852373230912958e+00
3.260000000000000231e+00 1.415120208182762962e+00
3.280000000000000249e+00 1.408408816424484344e+00
3.300000000000000266e+00 1.401718395540656026e+00
3.320000000000000284e+00 1.395049134515405020e+00
3.339999999999999858e+00 1.388401219748454318e+00
3.359999999999999876e+00 1.381774829302226948e+00
3.379999999999999893e+00 1.375170138665824382e+00
3.399999999999999911e+00 1.368587315258360082e+00
3.419999999999999929e+00 1.362026523932642341e+00
3.439999999999999947e+00 1.355487921742683843e+00
3.459999999999999964e+00 1.348971663178898606e+00
3.479999999999999982e+00 1.342477895207823568e+00
3.500000000000000000e+00 1.336006762230568912e+00
3.520000000000000018e+00 1.329558401402799461e+00
3.540000000000000036e+00 1.323132947308182983e+00
3.560000000000000053e+00 1.316730527566729370e+00
3.580000000000000071e+00 1.310351267214940885e+00
3.600000000000000089e+00 1.303995284610634853e+00
3.620000000000000107e+00 1.297662695511492492e+00
3.640000000000000124e+00 1.291353609284515480e+00
3.660000000000000142e+00 1.285068132674676900e+00
3.680000000000000160e+00 1.278806366327166710e+00
3.700000000000000178e+00 1.272568408237789273e+00
3.720000000000000195e+00 1.266354350596251566e+00
3.740000000000000213e+00 1.260164282909958855e+00
3.760000000000000231e+00 1.253998289176537329e+00
3.780000000000000249e+00 1.247856450672675477e+00
3.800000000000000266e+00 1.241738843464164965e+00
3.820000000000000284e+00 1.235645540851389113e+00
3.839999999999999858e+00 1.229576611225177363e+00
3.859999999999999876e+00 1.223532120160524705e+00
3.879999999999999893e+00 1.217512128626593748e+00
3.899999999999999911e+00 1.211516694720242038e+00
3.919999999999999929e+00 1.205545872238516170e+00
3.939999999999999947e+00 1.199599712043538213e+00
3.959999999999999964e+00 1.193678261005880037e+00
3.979999999999999982e+00 1.187781562992347384e+00
4.000000000000000000e+00 1.181909658188644352e+00
4.020000000000000462e+00 1.176062583701555253e+00
4.040000000000000036e+00 1.170240373269332057e+00
4.060000000000000497e+00 1.164443057469807030e+00
4.080000000000000071e+00 1.158670663826933289e+00
4.099999999999999645e+00 1.152923216616315472e+00
4.120000000000000107e+00 1.147200737376386837e+00
4.139999999999999680e+00 1.141503244302818354e+00
4.160000000000000142e+00 1.135830753172863083e+00
4.179999999999999716e+00 1.130183276320065433e+00
4.200000000000000178e+00 1.124560823980305990e+00
4.219999999999999751e+00 1.118963402838252241e+00
4.240000000000000213e+00 1.113391017803668781e+00
4.259999999999999787e+00 1.107843670120997936e+00
4.280000000000000249e+00 1.102321359584513383e+00
4.299999999999999822e+00 1.096824082202441097e+00
4.320000000000000284e+00 1.091351832859571713e+00
4.339999999999999858e+00 1.085904602527245855e+00
4.360000000000000320e+00 1.080482381382109613e+00
4.379999999999999893e+00 1.075085155553294758e+00
4.400000000000000355e+00 1.069712910705956865e+00
4.419999999999999929e+00 1.064365628317001766e+00
4.440000000000000391e+00 1.059043289732077398e+00
4.459999999999999964e+00 1.053745871961152547e+00
4.480000000000000426e+00 1.048473352217710763e+00
4.500000000000000000e+00 1.043225703225390655e+00
4.520000000000000462e+00 1.038002898248166384e+00
4.540000000000000036e+00 1.032804905899329828e+00
4.560000000000000497e+00 1.027631695671386014e+00
4.580000000000000071e+00 1.022483232238601714e+00
4.600000000000000533e+00 1.017359481495446083e+00
4.620000000000000107e+00 1.012260404343890086e+00
4.639999999999999680e+00 1.007185963249234817e+00
4.660000000000000142e+00 1.002136115503323488e+00
4.679999999999999716e+00 9.971108203066193498e-01
4.700000000000000178e+00 9.921100314984774293e-01
4.719999999999999751e+00 9.871337051743812596e-01
4.740000000000000213e+00 9.821817918743608322e-01
4.759999999999999787e+00 9.772542447443288705e-01
4.780000000000000249e+00 9.723510111737332373e-01
4.799999999999999822e+00 9.674720415099489212e-01
4.820000000000000284e+00 9.626172801362126163e-01
4.839999999999999858e+00 9.577866747480642262e-01
4.860000000000000320e+00 9.529801668625978994e-01
4.879999999999999893e+00 9.481977016659571822e-01
4.900000000000000355e+00 9.434392179448998217e-01
4.919999999999999929e+00 9.387046585144186439e-01
4.940000000000000391e+00 9.339939595625639246e-01
4.959999999999999964e+00 9.293070616672841622e-01
4.980000000000000426e+00 9.246438985454301651e-01
5.000000000000000000e+00 9.200044086679477484e-01
5.020000000000000462e+00 9.153885234039558227e-01
5.040000000000000036e+00 9.107961792434469128e-01
5.060000000000000497e+00 9.062273053272936751e-01
5.080000000000000071e+00 9.016818362866603209e-01
5.100000000000000533e+00 8.971596991497595708e-01
5.120000000000000107e+00 8.926608268072150354e-01
5.139999999999999680e+00 8.881851442863296642e-01
5.160000000000000142e+00 8.837325828516942039e-01
5.179999999999999716e+00 8.793030656377096577e-01
5.200000000000000178e+00 8.748965223937520408e-01
5.219999999999999751e+00 8.705128744656464024e-01
5.240000000000000213e+00 8.661520501947544970e-01
5.259999999999999787e+00 8.618139692390544004e-01
5.280000000000000249e+00 8.574985586355516887e-01
5.299999999999999822e+00 8.532057364515891473e-01
5.320000000000000284e+00 8.489354285200152450e-01
5.339999999999999858e+00 8.446875514113036942e-01
5.360000000000000320e+00 8.404620298509749565e-01
5.379999999999999893e+00 8.362587790030242552e-01
5.400000000000000355e+00 8.320777225791606835e-01
5.419999999999999929e+00 8.279187744240217306e-01
5.440000000000000391e+00 8.237818573257986721e-01
5.459999999999999964e+00 8.196668838936785884e-01
5.480000000000000426e+00 8.155737760794844471e-01
5.500000000000000000e+00 8.115024453377309710e-01
5.520000000000000462e+00 8.074528128679610006e-01
5.540000000000000036e+00 8.034247890477299592e-01
5.560000000000000497e+00 7.994182944054020190e-01
5.580000000000000071e+00 7.954332383163303932e-01
5.600000000000000533e+00 7.914695407158737206e-01
5.620000000000000107e+00 7.875271100490334186e-01
5.639999999999999680e+00 7.836058657335186473e-01
5.660000000000000142e+00 7.797057153530027040e-01
5.679999999999999716e+00 7.758265778801430868e-01
5.700000000000000178e+00 7.719683601035498555e-01
5.719999999999999751e+00 7.681309806207383684e-01
5.740000000000000213e+00 7.643143454888711164e-01
5.759999999999999787e+00 7.605183729976204843e-01
5.780000000000000249e+00 7.567429685336867218e-01
5.799999999999999822e+00 7.529880501436683193e-01
5.820000000000000284e+00 7.492535226022861705e-01
5.839999999999999858e+00 7.455393037753647034e-01
5.860000000000000320e+00 7.418452978816435506e-01
5.879999999999999893e+00 7.381714226660872624e-01
5.900000000000000355e+00 7.345175818450869754e-01
5.919999999999999929e+00 7.308836931003322990e-01
5.940000000000000391e+00 7.272696596971595095e-01
5.959999999999999964e+00 7.236753993093248960e-01
5.980000000000000426e+00 7.201008148001617482e-01
6.000000000000000000e+00 7.165458238886459608e-01
6.020000000000000462e+00 7.130103290829646889e-01
6.040000000000000036e+00 7.094942481983421700e-01
6.060000000000000497e+00 7.059974834325731807e-01
6.080000000000000071e+00 7.025199527461137849e-01
6.100000000000000533e+00 6.990615580690304753e-01
6.120000000000000107e+00 6.956222175540102137e-01
6.140000000000000568e+00 6.922018329040952045e-01
6.160000000000000142e+00 6.888003225092583781e-01
6.179999999999999716e+00 6.854175878842667657e-01
6.200000000000000178e+00 6.820535476995867041e-01
6.219999999999999751e+00 6.787081033185911050e-01
6.240000000000000213e+00 6.753811737336365972e-01
6.259999999999999787e+00 6.720726601917712539e-01
6.280000000000000249e+00 6.687824820468912801e-01
6.299999999999999822e+00 6.655105404630282662e-01
6.320000000000000284e+00 6.622567551935824026e-01
6.339999999999999858e+00 6.590210273511759587e-01
6.360000000000000320e+00 6.558032771250401627e-01
6.379999999999999893e+00 6.526034056063585442e-01
6.400000000000000355e+00 6.494213334549493455e-01
6.419999999999999929e+00 6.462569617689117862e-01
6.440000000000000391e+00 6.431102117118844275e-01
6.459999999999999964e+00 6.399809844157230421e-01
6.480000000000000426e+00 6.368692015796424410e-01
6.500000000000000000e+00 6.337747643945825793e-01
6.520000000000000462e+00 6.306975951256788004e-01
6.540000000000000036e+00 6.276375950468559006e-01
6.560000000000000497e+00 6.245946870181365851e-01
6.580000000000000071e+00 6.215687724189298269e-01
6.600000000000000533e+00 6.185597747317993500e-01
6.620000000000000107e+00 6.155675954627984892e-01
6.640000000000000568e+00 6.125921587434047799e-01
6.660000000000000142e+00 6.096333662261715913e-01
6.679999999999999716e+00 6.066911427166329362e-01
6.700000000000000178e+00 6.037653900324493339e-01
6.719999999999999751e+00 6.008560336771787691e-01
6.740000000000000213e+00 5.979629756509702299e-01
6.759999999999999787e+00 5.950861421782271954e-01
6.780000000000000249e+00 5.922254354578183611e-01
6.799999999999999822e+00 5.893807824567165454e-01
6.820000000000000284e+00 5.865520855875878681e-01
6.839999999999999858e+00 5.837392725806478389e-01
6.860000000000000320e+00 5.809422460763697948e-01
6.879999999999999893e+00 5.781609345878633288e-01
6.900000000000000355e+00 5.753952409963508652e-01
6.919999999999999929e+00 5.726450946165125844e-01
6.940000000000000391e+00 5.699103985822686624e-01
6.959999999999999964e+00 5.671910830275970206e-01
6.980000000000000426e+00 5.644870513500680476e-01
7.000000000000000000e+00 5.617982345197970462e-01
7.020000000000000462e+00 5.591245362080266013e-01
7.040000000000000036e+00 5.564658882369775128e-01
7.060000000000000497e+00 5.538221945606641716e-01
7.080000000000000071e+00 5.511933878685417731e-01
7.100000000000000533e+00 5.485793724056453602e-01
7.120000000000000107e+00 5.459800817429992792e-01
7.140000000000000568e+00 5.433954204240397656e-01
7.160000000000000142e+00 5.408253229149316832e-01
7.179999999999999716e+00 5.382696940641013006e-01
7.200000000000000178e+00 5.357284692456831809e-01
7.219999999999999751e+00 5.332015536188907667e-01
7.240000000000000213e+00 5.306888834779551756e-01
7.259999999999999787e+00 5.281903642979340896e-01
7.280000000000000249e+00 5.257059333046089078e-01
7.299999999999999822e+00 5.232354962931927700e-01
7.320000000000000284e+00 5.207789914318253777e-01
7.339999999999999858e+00 5.183363248395218559e-01
7.360000000000000320e+00 5.159074356369662828e-01
7.379999999999999893e+00 5.134922302699246321e-01
7.400000000000000355e+00 5.110906488212179077e-01
7.419999999999999929e+00 5.087025980656922908e-01
7.440000000000000391e+00 5.063280190573428152e-01
7.459999999999999964e+00 5.039668189017761923e-01
7.480000000000000426e+00 5.016189396326528049e-01
7.500000000000000000e+00 4.992842886874554464e-01
7.520000000000000462e+00 4.969628090874803616e-01
7.540000000000000036e+00 4.946544086026173903e-01
7.560000000000000497e+00 4.923590312492794330e-01
7.580000000000000071e+00 4.900765851297453901e-01
7.600000000000000533e+00 4.878070152625562650e-01
7.620000000000000107e+00 4.855502300818379524e-01
7.640000000000000568e+00 4.833061756148270272e-01
7.660000000000000142e+00 4.810747606264418330e-01
7.679999999999999716e+00 4.788559321587559925e-01
7.700000000000000178e+00 4.766495993059407521e-01
7.719999999999999751e+00 4.744557101306303148e-01
7.740000000000000213e+00 4.722741740542583666e-01
7.759999999999999787e+00 4.701049401653713544e-01
7.780000000000000249e+00 4.679479182102005419e-01
7.799999999999999822e+00 4.658030583081848031e-01
7.820000000000000284e+00 4.636702705274823866e-01
7.839999999999999858e+00 4.615495060230538904e-01
7.860000000000000320e+00 4.594406751816872969e-01
7.879999999999999893e+00 4.573437301981652103e-01
