# Electrodo circular de radio 6 mm y espesor 710.0 um.
# Volumen de simulacion (convencion z,y,x):
# N: 1024 x 1024 x 1024 | voxelSize:  0.02mm x 0.02mm x 0.02mm | FOV:  20.48mm x 20.48mm x 20.48mm
# 
# z [mm]		 delta[ppm]
0.000000000000000000e+00 2.361146316926481692e+00
2.000000000000000042e-02 2.358781380813087303e+00
4.000000000000000083e-02 2.356344255915627794e+00
5.999999999999999778e-02 2.353835318332857085e+00
8.000000000000000167e-02 2.351254954088394911e+00
1.000000000000000056e-01 2.348603561790006289e+00
1.199999999999999956e-01 2.345881550296460727e+00
1.400000000000000133e-01 2.343089339813348548e+00
1.600000000000000033e-01 2.340227358791141299e+00
1.799999999999999933e-01 2.337296047119355791e+00
2.000000000000000111e-01 2.334295852208876809e+00
2.200000000000000011e-01 2.331227232683594330e+00
2.399999999999999911e-01 2.328090654293271111e+00
2.600000000000000089e-01 2.324886593780461475e+00
2.800000000000000266e-01 2.321615534595391050e+00
2.999999999999999889e-01 2.318277970939250920e+00
3.200000000000000067e-01 2.314874403306416806e+00
3.400000000000000244e-01 2.311405342696654763e+00
3.599999999999999867e-01 2.307871305975267795e+00
3.800000000000000044e-01 2.304272820255192755e+00
4.000000000000000222e-01 2.300610418083940178e+00
4.199999999999999845e-01 2.296884641992324561e+00
4.400000000000000022e-01 2.293096039507350969e+00
4.600000000000000200e-01 2.289245167866024833e+00
4.799999999999999822e-01 2.285332588859745329e+00
5.000000000000000000e-01 2.281358873710308544e+00
5.200000000000000178e-01 2.277324597747546697e+00
5.400000000000000355e-01 2.273230345445198530e+00
5.600000000000000533e-01 2.269076704936331623e+00
5.799999999999999600e-01 2.264864273206208978e+00
5.999999999999999778e-01 2.260593650448258440e+00
6.199999999999999956e-01 2.256265445411230974e+00
6.400000000000000133e-01 2.251880269599960016e+00
6.600000000000000311e-01 2.247438742773781861e+00
6.800000000000000488e-01 2.242941486995443157e+00
7.000000000000000666e-01 2.238389132277775140e+00
7.199999999999999734e-01 2.233782310484955680e+00
7.399999999999999911e-01 2.229121661124234599e+00
7.600000000000000089e-01 2.224407825103261072e+00
7.800000000000000266e-01 2.219641450663618176e+00
8.000000000000000444e-01 2.214823186998487348e+00
8.200000000000000622e-01 2.209953690324579778e+00
8.399999999999999689e-01 2.205033617364138276e+00
8.599999999999999867e-01 2.200063631551783416e+00
8.800000000000000044e-01 2.195044396385251506e+00
9.000000000000000222e-01 2.189976581763517949e+00
9.200000000000000400e-01 2.184860857210508378e+00
9.400000000000000577e-01 2.179697898340806628e+00
9.599999999999999645e-01 2.174488379960843876e+00
9.799999999999999822e-01 2.169232982658353848e+00
1.000000000000000000e+00 2.163932385785503509e+00
1.020000000000000018e+00 2.158587274168146664e+00
1.040000000000000036e+00 2.153198330975550689e+00
1.060000000000000053e+00 2.147766244545437075e+00
1.080000000000000071e+00 2.142291701144893867e+00
1.100000000000000089e+00 2.136775391907059785e+00
1.120000000000000107e+00 2.131218005488054956e+00
1.140000000000000124e+00 2.125620235111028045e+00
1.159999999999999920e+00 2.119982771123904541e+00
1.179999999999999938e+00 2.114306308146436386e+00
1.199999999999999956e+00 2.108591537533724747e+00
1.219999999999999973e+00 2.102839154621807261e+00
1.239999999999999991e+00 2.097049851101887352e+00
1.260000000000000009e+00 2.091224322359910293e+00
1.280000000000000027e+00 2.085363259766593202e+00
1.300000000000000044e+00 2.079467358106299457e+00
1.320000000000000062e+00 2.073537307787982620e+00
1.340000000000000080e+00 2.067573802358587454e+00
1.360000000000000098e+00 2.061577530640138267e+00
1.380000000000000115e+00 2.055549184322786882e+00
1.400000000000000133e+00 2.049489450033286975e+00
1.419999999999999929e+00 2.043399017002720530e+00
1.439999999999999947e+00 2.037278569071726331e+00
1.459999999999999964e+00 2.031128792427827623e+00
1.479999999999999982e+00 2.024950367552793118e+00
1.500000000000000000e+00 2.018743977024399783e+00
1.520000000000000018e+00 2.012510297411438387e+00
1.540000000000000036e+00 2.006250007134610769e+00
1.560000000000000053e+00 1.999963778314707286e+00
1.580000000000000071e+00 1.993652284687308152e+00
1.600000000000000089e+00 1.987316193409725429e+00
1.620000000000000107e+00 1.980956173024045253e+00
1.640000000000000124e+00 1.974572885228506047e+00
1.660000000000000142e+00 1.968166992883328081e+00
1.679999999999999938e+00 1.961739151752260213e+00
1.699999999999999956e+00 1.955290018545572162e+00
1.719999999999999973e+00 1.948820242637541167e+00
1.739999999999999991e+00 1.942330474140878671e+00
1.760000000000000009e+00 1.935821355606029304e+00
1.780000000000000027e+00 1.929293530121195088e+00
1.800000000000000044e+00 1.922747632999366019e+00
1.820000000000000062e+00 1.916184299898041843e+00
1.840000000000000080e+00 1.909604158499970117e+00
1.860000000000000098e+00 1.903007836646574136e+00
1.880000000000000115e+00 1.896395954018424312e+00
1.900000000000000133e+00 1.889769130276314435e+00
1.919999999999999929e+00 1.883127976747538845e+00
1.939999999999999947e+00 1.876473104568488370e+00
1.959999999999999964e+00 1.869805116382870169e+00
1.979999999999999982e+00 1.863124614479576335e+00
2.000000000000000000e+00 1.856432192509072321e+00
2.020000000000000018e+00 1.849728443610232587e+00
2.040000000000000036e+00 1.843013952151137946e+00
2.060000000000000053e+00 1.836289301838510246e+00
2.080000000000000071e+00 1.829555067489219589e+00
2.100000000000000089e+00 1.822811823115870533e+00
2.120000000000000107e+00 1.816060133735394544e+00
2.140000000000000124e+00 1.809300563424246944e+00
2.160000000000000142e+00 1.802533667170506781e+00
2.180000000000000160e+00 1.795759998892092035e+00
2.200000000000000178e+00 1.788980103338838390e+00
2.220000000000000195e+00 1.782194524067068020e+00
2.240000000000000213e+00 1.775403795398174056e+00
2.260000000000000231e+00 1.768608450342812777e+00
2.280000000000000249e+00 1.761809012622565174e+00
2.300000000000000266e+00 1.755006004536957320e+00
2.319999999999999840e+00 1.748199939054830843e+00
2.339999999999999858e+00 1.741391327617328511e+00
2.359999999999999876e+00 1.734580672305661153e+00
2.379999999999999893e+00 1.727768473573133345e+00
2.399999999999999911e+00 1.720955222496028947e+00
2.419999999999999929e+00 1.714141408427693580e+00
2.439999999999999947e+00 1.707327511339336912e+00
2.459999999999999964e+00 1.700514009389124226e+00
2.479999999999999982e+00 1.693701371359707997e+00
2.500000000000000000e+00 1.686890064135248890e+00
2.520000000000000018e+00 1.680080545242554901e+00
2.540000000000000036e+00 1.673273270228874399e+00
2.560000000000000053e+00 1.666468685313571285e+00
2.580000000000000071e+00 1.659667234659474300e+00
2.600000000000000089e+00 1.652869353142071063e+00
2.620000000000000107e+00 1.646075473507158549e+00
2.640000000000000124e+00 1.639286019264571070e+00
2.660000000000000142e+00 1.632501411724817331e+00
2.680000000000000160e+00 1.625722063024426678e+00
2.700000000000000178e+00 1.618948383034204186e+00
2.720000000000000195e+00 1.612180772523299055e+00
2.740000000000000213e+00 1.605419629931674308e+00
2.760000000000000231e+00 1.598665344680078260e+00
2.780000000000000249e+00 1.591918303799260137e+00
2.800000000000000266e+00 1.585178885393035308e+00
2.819999999999999840e+00 1.578447465116762150e+00
2.839999999999999858e+00 1.571724409800753453e+00
2.859999999999999876e+00 1.565010083770471905e+00
2.879999999999999893e+00 1.558304842637567411e+00
2.899999999999999911e+00 1.551609039454202588e+00
2.919999999999999929e+00 1.544923018679088766e+00
2.939999999999999947e+00 1.538247122158268310e+00
2.959999999999999964e+00 1.531581683273543160e+00
2.979999999999999982e+00 1.524927032742055211e+00
3.000000000000000000e+00 1.518283492954528580e+00
3.020000000000000018e+00 1.511651383585939534e+00
3.040000000000000036e+00 1.505031016131021637e+00
3.060000000000000053e+00 1.498422699318278317e+00
3.080000000000000071e+00 1.491826733850288633e+00
3.100000000000000089e+00 1.485243417613245853e+00
3.120000000000000107e+00 1.478673040629615576e+00
3.140000000000000124e+00 1.472115890055381904e+00
3.160000000000000142e+00 1.465572245352661174e+00
3.180000000000000160e+00 1.459042383066772031e+00
3.200000000000000178e+00 1.452526572226441104e+00
3.220000000000000195e+00 1.446025078892819060e+00
3.240000000000000213e+00 1.439538161794930327e+00
3.260000000000000231e+00 1.433066076642698361e+00
3.280000000000000249e+00 1.426609072005378565e+00
3.300000000000000266e+00 1.420167393380601828e+00
3.320000000000000284e+00 1.413741279323554423e+00
3.339999999999999858e+00 1.407330965264035338e+00
3.359999999999999876e+00 1.400936679894173142e+00
3.379999999999999893e+00 1.394558648725461980e+00
3.399999999999999911e+00 1.388197090742866457e+00
3.419999999999999929e+00 1.381852221693743221e+00
3.439999999999999947e+00 1.375524251016199795e+00
3.459999999999999964e+00 1.369213384851838189e+00
3.479999999999999982e+00 1.362919823256258045e+00
3.500000000000000000e+00 1.356643762927465025e+00
3.520000000000000018e+00 1.350385394706494546e+00
3.540000000000000036e+00 1.344144906013335028e+00
3.560000000000000053e+00 1.337922478645637181e+00
3.580000000000000071e+00 1.331718290913930236e+00
3.600000000000000089e+00 1.325532515746484563e+00
3.620000000000000107e+00 1.319365322515600569e+00
3.640000000000000124e+00 1.313216875456644894e+00
3.660000000000000142e+00 1.307087335177177012e+00
3.680000000000000160e+00 1.300976857398270514e+00
3.700000000000000178e+00 1.294885594138166063e+00
3.720000000000000195e+00 1.288813692784029685e+00
3.740000000000000213e+00 1.282761296941818507e+00
3.760000000000000231e+00 1.276728545846630869e+00
3.780000000000000249e+00 1.270715574870460607e+00
3.800000000000000266e+00 1.264722515279333548e+00
3.820000000000000284e+00 1.258749494390569490e+00
3.839999999999999858e+00 1.252796635684970017e+00
3.859999999999999876e+00 1.246864058605178016e+00
3.879999999999999893e+00 1.240951879031186644e+00
3.899999999999999911e+00 1.235060208711358021e+00
3.919999999999999929e+00 1.229189156109591119e+00
3.939999999999999947e+00 1.223338825460535739e+00
3.959999999999999964e+00 1.217509317996748219e+00
3.979999999999999982e+00 1.211700730619617472e+00
4.000000000000000000e+00 1.205913157514922673e+00
4.020000000000000462e+00 1.200146688430928865e+00
4.040000000000000036e+00 1.194401410690750120e+00
4.060000000000000497e+00 1.188677407069096192e+00
4.080000000000000071e+00 1.182974758209891064e+00
4.099999999999999645e+00 1.177293540093102830e+00
4.120000000000000107e+00 1.171633826866089301e+00
4.139999999999999680e+00 1.165995687891888899e+00
4.160000000000000142e+00 1.160379191002873345e+00
4.179999999999999716e+00 1.154784399121846050e+00
4.200000000000000178e+00 1.149211373946527726e+00
4.219999999999999751e+00 1.143660172134822295e+00
4.240000000000000213e+00 1.138130849428753866e+00
4.259999999999999787e+00 1.132623456395193795e+00
4.280000000000000249e+00 1.127138042997849032e+00
4.299999999999999822e+00 1.121674653884745076e+00
4.320000000000000284e+00 1.116233333416971174e+00
4.339999999999999858e+00 1.110814120494116208e+00
4.360000000000000320e+00 1.105417054048497327e+00
4.379999999999999893e+00 1.100042167399756465e+00
4.400000000000000355e+00 1.094689494223303861e+00
4.419999999999999929e+00 1.089359062425292679e+00
4.440000000000000391e+00 1.084050900594011102e+00
4.459999999999999964e+00 1.078765031386392792e+00
4.480000000000000426e+00 1.073501478471221127e+00
4.500000000000000000e+00 1.068260259418232216e+00
4.520000000000000462e+00 1.063041393141999302e+00
4.540000000000000036e+00 1.057844892284740101e+00
4.560000000000000497e+00 1.052670771169746722e+00
4.580000000000000071e+00 1.047519037668951603e+00
4.600000000000000533e+00 1.042389701674832247e+00
4.620000000000000107e+00 1.037282766443735849e+00
4.639999999999999680e+00 1.032198237595263635e+00
4.660000000000000142e+00 1.027136113922323624e+00
4.679999999999999716e+00 1.022096396926968964e+00
4.700000000000000178e+00 1.017079081088138492e+00
4.719999999999999751e+00 1.012084163943029136e+00
4.740000000000000213e+00 1.007111635803398908e+00
4.759999999999999787e+00 1.002161490391562326e+00
4.780000000000000249e+00 9.972337139961238162e-01
4.799999999999999822e+00 9.923282966717443809e-01
4.820000000000000284e+00 9.874452208251354168e-01
4.839999999999999858e+00 9.825844729877449835e-01
4.860000000000000320e+00 9.777460318228169411e-01
4.879999999999999893e+00 9.729298804802123390e-01
4.900000000000000355e+00 9.681359940152930443e-01
4.919999999999999929e+00 9.633643523351288485e-01
4.940000000000000391e+00 9.586149270198978112e-01
4.959999999999999964e+00 9.538876948698082892e-01
4.980000000000000426e+00 9.491826241196872349e-01
5.000000000000000000e+00 9.444996885959390243e-01
5.020000000000000462e+00 9.398388533149559798e-01
5.040000000000000036e+00 9.352000892595213610e-01
5.060000000000000497e+00 9.305833583516180951e-01
5.080000000000000071e+00 9.259886288576992808e-01
5.100000000000000533e+00 9.214158597264435757e-01
5.120000000000000107e+00 9.168650166323897288e-01
5.139999999999999680e+00 9.123360556691209045e-01
5.160000000000000142e+00 9.078289400407929532e-01
5.179999999999999716e+00 9.033436231011949813e-01
5.200000000000000178e+00 8.988800657027617991e-01
5.219999999999999751e+00 8.944382185719159661e-01
5.240000000000000213e+00 8.900180403251765071e-01
5.259999999999999787e+00 8.856194791711299308e-01
5.280000000000000249e+00 8.812424916033390065e-01
5.299999999999999822e+00 8.768870234192540636e-01
5.320000000000000284e+00 8.725530290996150740e-01
5.339999999999999858e+00 8.682404521345732373e-01
5.360000000000000320e+00 8.639492450993924155e-01
5.379999999999999893e+00 8.596793492779535306e-01
5.400000000000000355e+00 8.554307154446028072e-01
5.419999999999999929e+00 8.512032827751860875e-01
5.440000000000000391e+00 8.469970003449427409e-01
5.459999999999999964e+00 8.428118053171695934e-01
5.480000000000000426e+00 8.386476451670867860e-01
5.500000000000000000e+00 8.345044551381816111e-01
5.520000000000000462e+00 8.303821812020599769e-01
5.540000000000000036e+00 8.262807567724409497e-01
5.560000000000000497e+00 8.222001264110689878e-01
5.580000000000000071e+00 8.181402217892721485e-01
5.600000000000000533e+00 8.141009861500494438e-01
5.620000000000000107e+00 8.100823495070955671e-01
5.639999999999999680e+00 8.060842538732130302e-01
5.660000000000000142e+00 8.021066276866055667e-01
5.679999999999999716e+00 7.981494118158871665e-01
5.700000000000000178e+00 7.942125332033653784e-01
5.719999999999999751e+00 7.902959316569608816e-01
5.740000000000000213e+00 7.863995327001751523e-01
5.759999999999999787e+00 7.825232751612660742e-01
5.780000000000000249e+00 7.786670832195314862e-01
5.799999999999999822e+00 7.748308948021835896e-01
5.820000000000000284e+00 7.710146328164962926e-01
5.839999999999999858e+00 7.672182343648678016e-01
5.860000000000000320e+00 7.634416211523273876e-01
5.879999999999999893e+00 7.596847295303638115e-01
5.900000000000000355e+00 7.559474800692027596e-01
5.919999999999999929e+00 7.522298084410281582e-01
5.940000000000000391e+00 7.485316341463980061e-01
5.959999999999999964e+00 7.448528922475605718e-01
5.980000000000000426e+00 7.411935012382779853e-01
6.000000000000000000e+00 7.375533956380280198e-01
6.020000000000000462e+00 7.339324929944430753e-01
6.040000000000000036e+00 7.303307273492330998e-01
6.060000000000000497e+00 7.267480153624017447e-01
6.080000000000000071e+00 7.231842906607963695e-01
6.100000000000000533e+00 7.196394690731474642e-01
6.120000000000000107e+00 7.161134838722876816e-01
6.140000000000000568e+00 7.126062501099746926e-01
6.160000000000000142e+00 7.091177007638368446e-01
6.179999999999999716e+00 7.056477501609212943e-01
6.200000000000000178e+00 7.021963310405114900e-01
6.219999999999999751e+00 6.987633570552078677e-01
6.240000000000000213e+00 6.953487607608745957e-01
6.259999999999999787e+00 6.919524551840088300e-01
6.280000000000000249e+00 6.885743727501039135e-01
6.299999999999999822e+00 6.852144259059772535e-01
6.320000000000000284e+00 6.818725469979707299e-01
6.339999999999999858e+00 6.785486479378103342e-01
6.360000000000000320e+00 6.752426610421116138e-01
6.379999999999999893e+00 6.719544977302874811e-01
6.400000000000000355e+00 6.686840903369147826e-01
6.419999999999999929e+00 6.654313498301004381e-01
6.440000000000000391e+00 6.621962086083761356e-01
6.459999999999999964e+00 6.589785772278413667e-01
6.480000000000000426e+00 6.557783881953151983e-01
6.500000000000000000e+00 6.525955516925083799e-01
6.520000000000000462e+00 6.494300003772586205e-01
6.540000000000000036e+00 6.462816440928709216e-01
6.560000000000000497e+00 6.431504156893610435e-01
6.580000000000000071e+00 6.400362247060302767e-01
6.600000000000000533e+00 6.369390042247178307e-01
6.620000000000000107e+00 6.338586635135619041e-01
6.640000000000000568e+00 6.307951359243859635e-01
6.660000000000000142e+00 6.277483304855140389e-01
6.679999999999999716e+00 6.247181808554720384e-01
6.700000000000000178e+00 6.217045958526451477e-01
6.719999999999999751e+00 6.187075094775902340e-01
6.740000000000000213e+00 6.157268303672067677e-01
6.759999999999999787e+00 6.127624928980515140e-01
6.780000000000000249e+00 6.098144055526060203e-01
6.799999999999999822e+00 6.068825031160803851e-01
6.820000000000000284e+00 6.039666939422551062e-01
6.839999999999999858e+00 6.010669132563721817e-01
6.860000000000000320e+00 5.981830693079260852e-01
6.879999999999999893e+00 5.953150977923276077e-01
6.900000000000000355e+00 5.924629068779275753e-01
6.919999999999999929e+00 5.896264327592457555e-01
6.940000000000000391e+00 5.868055835454011326e-01
6.959999999999999964e+00 5.840002959577887953e-01
6.980000000000000426e+00 5.812104780670124260e-01
7.000000000000000000e+00 5.784360671479973348e-01
7.020000000000000462e+00 5.756769712523783777e-01
7.040000000000000036e+00 5.729331282341718623e-01
7.060000000000000497e+00 5.702044461444684131e-01
7.080000000000000071e+00 5.674908634408752928e-01
7.100000000000000533e+00 5.647922881912765813e-01
7.120000000000000107e+00 5.621086594803519354e-01
7.140000000000000568e+00 5.594398854090505413e-01
7.160000000000000142e+00 5.567859057116251176e-01
7.179999999999999716e+00 5.541466285373370937e-01
7.200000000000000178e+00 5.515219942915488005e-01
7.219999999999999751e+00 5.489119111860956135e-01
7.240000000000000213e+00 5.463163203180669836e-01
7.259999999999999787e+00 5.437351299751652656e-01
7.280000000000000249e+00 5.411682819659338062e-01
7.299999999999999822e+00 5.386156846662989439e-01
7.320000000000000284e+00 5.360772806151290482e-01
7.339999999999999858e+00 5.335529782880424898e-01
7.360000000000000320e+00 5.310427209722670128e-01
7.379999999999999893e+00 5.285464172536993299e-01
7.400000000000000355e+00 5.260640111851592193e-01
7.419999999999999929e+00 5.235954114725703823e-01
7.440000000000000391e+00 5.211405629508155668e-01
7.459999999999999964e+00 5.186993744547667706e-01
7.480000000000000426e+00 5.162717916170900256e-01
7.500000000000000000e+00 5.138577234097490010e-01
7.520000000000000462e+00 5.114571162781909042e-01
7.540000000000000036e+00 5.090698793388611643e-01
7.560000000000000497e+00 5.066959598642971629e-01
7.580000000000000071e+00 5.043352671220582284e-01
7.600000000000000533e+00 5.019877492254178897e-01
7.620000000000000107e+00 4.996533155989936192e-01
7.640000000000000568e+00 4.973319152098042428e-01
7.660000000000000142e+00 4.950234576447575252e-01
7.679999999999999716e+00 4.927278927370100647e-01
7.700000000000000178e+00 4.904451302403510793e-01
7.719999999999999751e+00 4.881751208658647312e-01
7.740000000000000213e+00 4.859177745381684232e-01
7.759999999999999787e+00 4.836730428575052310e-01
7.780000000000000249e+00 4.814408359226477474e-01
7.799999999999999822e+00 4.792211062336789729e-01
7.820000000000000284e+00 4.770137640662587275e-01
7.839999999999999858e+00 4.748187628304642027e-01
7.860000000000000320e+00 4.726360129810083244e-01
7.879999999999999893e+00 4.704654688476128666e-01
