# Electrodo circular de radio 6 mm y espesor 710.0 um.
# Volumen de simulacion (convencion z,y,x):
# N: 1024 x 1024 x 1024 | voxelSize:  0.02mm x 0.02mm x 0.02mm | FOV:  20.48mm x 20.48mm x 20.48mm
# 
# z [mm]		 delta[ppm]
0.000000000000000000e+00 2.387749594290238253e+00
2.000000000000000042e-02 2.385246833283187762e+00
4.000000000000000083e-02 2.382667984830586949e+00
5.999999999999999778e-02 2.380013490634878437e+00
8.000000000000000167e-02 2.377283791457587281e+00
1.000000000000000056e-01 2.374479340277637185e+00
1.199999999999999956e-01 2.371600600639729439e+00
1.400000000000000133e-01 2.368648048788315474e+00
1.600000000000000033e-01 2.365622170050079021e+00
1.799999999999999933e-01 2.362523462407521535e+00
2.000000000000000111e-01 2.359352432199906868e+00
2.200000000000000011e-01 2.356109598093210966e+00
2.399999999999999911e-01 2.352795486667016434e+00
2.600000000000000089e-01 2.349410636531350516e+00
2.800000000000000266e-01 2.345955593716496423e+00
2.999999999999999889e-01 2.342430915957432802e+00
3.200000000000000067e-01 2.338837167926551608e+00
3.400000000000000244e-01 2.335174925682505176e+00
3.599999999999999867e-01 2.331444771713083508e+00
3.800000000000000044e-01 2.327647299555719584e+00
4.000000000000000222e-01 2.323783108670407049e+00
4.199999999999999845e-01 2.319852809229762336e+00
4.400000000000000022e-01 2.315857016808200441e+00
4.600000000000000200e-01 2.311796357342764452e+00
4.799999999999999822e-01 2.307671461651940703e+00
5.000000000000000000e-01 2.303482970564762589e+00
5.200000000000000178e-01 2.299231529262894647e+00
5.400000000000000355e-01 2.294917792577121585e+00
5.600000000000000533e-01 2.290542419162943322e+00
5.799999999999999600e-01 2.286106076961698097e+00
5.999999999999999778e-01 2.281609437206959079e+00
6.199999999999999956e-01 2.277053180048426828e+00
6.400000000000000133e-01 2.272437988397638442e+00
6.600000000000000311e-01 2.267764553711635767e+00
6.800000000000000488e-01 2.263033569677457280e+00
7.000000000000000666e-01 2.258245738153072057e+00
7.199999999999999734e-01 2.253401762698179489e+00
7.399999999999999911e-01 2.248502354669201342e+00
7.600000000000000089e-01 2.243548226597202877e+00
7.800000000000000266e-01 2.238540098434037340e+00
8.000000000000000444e-01 2.233478690784286513e+00
8.200000000000000622e-01 2.228364731299115054e+00
8.399999999999999689e-01 2.223198947764022826e+00
8.599999999999999867e-01 2.217982074637137035e+00
8.800000000000000044e-01 2.212714845999313784e+00
9.000000000000000222e-01 2.207398002233180279e+00
9.200000000000000400e-01 2.202032282838085386e+00
9.400000000000000577e-01 2.196618433246345869e+00
9.599999999999999645e-01 2.191157197509301380e+00
9.799999999999999822e-01 2.185649325246872721e+00
1.000000000000000000e+00 2.180095564207795267e+00
1.020000000000000018e+00 2.174496667348617240e+00
1.040000000000000036e+00 2.168853385274248424e+00
1.060000000000000053e+00 2.163166473442292403e+00
1.080000000000000071e+00 2.157436684487398892e+00
1.100000000000000089e+00 2.151664775546810127e+00
1.120000000000000107e+00 2.145851500474577733e+00
1.140000000000000124e+00 2.139997617283979636e+00
1.159999999999999920e+00 2.134103880255471264e+00
1.179999999999999938e+00 2.128171047491591583e+00
1.199999999999999956e+00 2.122199872924676711e+00
1.219999999999999973e+00 2.116191113979701388e+00
1.239999999999999991e+00 2.110145523485901453e+00
1.260000000000000009e+00 2.104063857442971308e+00
1.280000000000000027e+00 2.097946866842604674e+00
1.300000000000000044e+00 2.091795305533241223e+00
1.320000000000000062e+00 2.085609921955999813e+00
1.340000000000000080e+00 2.079391467103130609e+00
1.360000000000000098e+00 2.073140686174362202e+00
1.380000000000000115e+00 2.066858326624067654e+00
1.400000000000000133e+00 2.060545129742706649e+00
1.419999999999999929e+00 2.054201838787651724e+00
1.439999999999999947e+00 2.047829190495790375e+00
1.459999999999999964e+00 2.041427923292795210e+00
1.479999999999999982e+00 2.034998768741794972e+00
1.500000000000000000e+00 2.028542459825816380e+00
1.520000000000000018e+00 2.022059722338639176e+00
1.540000000000000036e+00 2.015551283234977120e+00
1.560000000000000053e+00 2.009017861968628083e+00
1.580000000000000071e+00 2.002460178904935439e+00
1.600000000000000089e+00 1.995878946612372085e+00
1.620000000000000107e+00 1.989274878331677820e+00
1.640000000000000124e+00 1.982648679226168165e+00
1.660000000000000142e+00 1.976001054901873166e+00
1.679999999999999938e+00 1.969332702622787146e+00
1.699999999999999956e+00 1.962644319876213794e+00
1.719999999999999973e+00 1.955936595558418034e+00
1.739999999999999991e+00 1.949210218579310538e+00
1.760000000000000009e+00 1.942465869024795788e+00
1.780000000000000027e+00 1.935704226794803029e+00
1.800000000000000044e+00 1.928925962747960465e+00
1.820000000000000062e+00 1.922131747366924603e+00
1.840000000000000080e+00 1.915322241891748822e+00
1.860000000000000098e+00 1.908498107006352473e+00
1.880000000000000115e+00 1.901659993966347439e+00
1.900000000000000133e+00 1.894808553300447063e+00
1.919999999999999929e+00 1.887944425939170889e+00
1.939999999999999947e+00 1.881068251924885804e+00
1.959999999999999964e+00 1.874180661547314219e+00
1.979999999999999982e+00 1.867282284055799657e+00
2.000000000000000000e+00 1.860373738808148714e+00
2.020000000000000018e+00 1.853455643978668910e+00
2.040000000000000036e+00 1.846528607726371840e+00
2.060000000000000053e+00 1.839593236892250738e+00
2.080000000000000071e+00 1.832650128193443750e+00
2.100000000000000089e+00 1.825699876903138508e+00
2.120000000000000107e+00 1.818743068076885017e+00
2.140000000000000124e+00 1.811780285208427710e+00
2.160000000000000142e+00 1.804812101494861265e+00
2.180000000000000160e+00 1.797839088461628654e+00
2.200000000000000178e+00 1.790861807272829065e+00
2.220000000000000195e+00 1.783880817318568957e+00
2.240000000000000213e+00 1.776896667577184896e+00
2.260000000000000231e+00 1.769909905158058239e+00
2.280000000000000249e+00 1.762921066722183738e+00
2.300000000000000266e+00 1.755930686973494526e+00
2.319999999999999840e+00 1.748939290144641667e+00
2.339999999999999858e+00 1.741947398429809502e+00
2.359999999999999876e+00 1.734955523542254241e+00
2.379999999999999893e+00 1.727964175081547538e+00
2.399999999999999911e+00 1.720973852169803031e+00
2.419999999999999929e+00 1.713985051746218513e+00
2.439999999999999947e+00 1.706998260288669522e+00
2.459999999999999964e+00 1.700013962028352310e+00
2.479999999999999982e+00 1.693032630763771529e+00
2.500000000000000000e+00 1.686054737988251118e+00
2.520000000000000018e+00 1.679080744803085778e+00
2.540000000000000036e+00 1.672111109950633612e+00
2.560000000000000053e+00 1.665146281833744801e+00
2.580000000000000071e+00 1.658186706447084102e+00
2.600000000000000089e+00 1.651232819509724781e+00
2.620000000000000107e+00 1.644285054287313530e+00
2.640000000000000124e+00 1.637343833845028573e+00
2.660000000000000142e+00 1.630409578753141409e+00
2.680000000000000160e+00 1.623482699467331258e+00
2.700000000000000178e+00 1.616563603910162739e+00
2.720000000000000195e+00 1.609652689986031504e+00
2.740000000000000213e+00 1.602750353031022534e+00
2.760000000000000231e+00 1.595856978469594178e+00
2.780000000000000249e+00 1.588972949125241785e+00
2.800000000000000266e+00 1.582098638026267823e+00
2.819999999999999840e+00 1.575234415569652713e+00
2.839999999999999858e+00 1.568380642483092613e+00
2.859999999999999876e+00 1.561537676834429567e+00
2.879999999999999893e+00 1.554705867157399224e+00
2.899999999999999911e+00 1.547885559298914471e+00
2.919999999999999929e+00 1.541077089715838788e+00
2.939999999999999947e+00 1.534280792152359130e+00
2.959999999999999964e+00 1.527496991115315339e+00
2.979999999999999982e+00 1.520726008373913141e+00
3.000000000000000000e+00 1.513968156620974170e+00
3.020000000000000018e+00 1.507223745787188429e+00
3.040000000000000036e+00 1.500493076895883515e+00
3.060000000000000053e+00 1.493776448183970373e+00
3.080000000000000071e+00 1.487074149157719960e+00
3.100000000000000089e+00 1.480386466512519039e+00
3.120000000000000107e+00 1.473713678397323479e+00
3.140000000000000124e+00 1.467056060125331074e+00
3.160000000000000142e+00 1.460413878654674757e+00
3.180000000000000160e+00 1.453787398082047044e+00
3.200000000000000178e+00 1.447176874347402720e+00
3.220000000000000195e+00 1.440582560502589038e+00
3.240000000000000213e+00 1.434004701647656699e+00
3.260000000000000231e+00 1.427443539966505304e+00
3.280000000000000249e+00 1.420899309902661001e+00
3.300000000000000266e+00 1.414372242953877645e+00
3.320000000000000284e+00 1.407862563095107822e+00
3.339999999999999858e+00 1.401370491324006595e+00
3.359999999999999876e+00 1.394896241338993370e+00
3.379999999999999893e+00 1.388440023827565373e+00
3.399999999999999911e+00 1.382002042407271647e+00
3.419999999999999929e+00 1.375582497648693003e+00
3.439999999999999947e+00 1.369181583287299553e+00
3.459999999999999964e+00 1.362799489972991385e+00
3.479999999999999982e+00 1.356436401760687138e+00
3.500000000000000000e+00 1.350092499578234628e+00
3.520000000000000018e+00 1.343767958003807772e+00
3.540000000000000036e+00 1.337462948443997046e+00
3.560000000000000053e+00 1.331177636205936654e+00
3.580000000000000071e+00 1.324912183377335850e+00
3.600000000000000089e+00 1.318666746201491824e+00
3.620000000000000107e+00 1.312441477651005384e+00
3.640000000000000124e+00 1.306236525113669167e+00
3.660000000000000142e+00 1.300052032651610512e+00
3.680000000000000160e+00 1.293888139006251325e+00
3.700000000000000178e+00 1.287744979534543033e+00
3.720000000000000195e+00 1.281622684541112722e+00
3.740000000000000213e+00 1.275521380883264833e+00
3.760000000000000231e+00 1.269441190638540551e+00
3.780000000000000249e+00 1.263382232370157121e+00
3.800000000000000266e+00 1.257344620138131752e+00
3.820000000000000284e+00 1.251328464416761488e+00
3.839999999999999858e+00 1.245333871457655173e+00
3.859999999999999876e+00 1.239360943850847274e+00
3.879999999999999893e+00 1.233409780247949783e+00
3.899999999999999911e+00 1.227480475558464290e+00
3.919999999999999929e+00 1.221573121041460874e+00
3.939999999999999947e+00 1.215687804128626315e+00
3.959999999999999964e+00 1.209824608892752229e+00
3.979999999999999982e+00 1.203983615489035985e+00
4.000000000000000000e+00 1.198164901008855532e+00
4.020000000000000462e+00 1.192368538530793609e+00
4.040000000000000036e+00 1.186594598368045927e+00
4.060000000000000497e+00 1.180843146720666370e+00
4.080000000000000071e+00 1.175114247325107941e+00
4.099999999999999645e+00 1.169407959699139798e+00
4.120000000000000107e+00 1.163724341201935353e+00
4.139999999999999680e+00 1.158063444863062452e+00
4.160000000000000142e+00 1.152425321861739516e+00
4.179999999999999716e+00 1.146810018931268882e+00
4.200000000000000178e+00 1.141217581265929537e+00
4.219999999999999751e+00 1.135648049492238743e+00
4.240000000000000213e+00 1.130101463012138874e+00
4.259999999999999787e+00 1.124577856532408271e+00
4.280000000000000249e+00 1.119077263852676918e+00
4.299999999999999822e+00 1.113599713944322778e+00
4.320000000000000284e+00 1.108145235192040889e+00
4.339999999999999858e+00 1.102713851013463531e+00
4.360000000000000320e+00 1.097305584562944691e+00
4.379999999999999893e+00 1.091920453883141517e+00
4.400000000000000355e+00 1.086558477079775376e+00
4.419999999999999929e+00 1.081219666996437567e+00
4.440000000000000391e+00 1.075904036868976288e+00
4.459999999999999964e+00 1.070611594514737863e+00
4.480000000000000426e+00 1.065342348475458056e+00
4.500000000000000000e+00 1.060096301712042166e+00
4.520000000000000462e+00 1.054873458244748763e+00
4.540000000000000036e+00 1.049673816344677491e+00
4.560000000000000497e+00 1.044497375680113693e+00
4.580000000000000071e+00 1.039344129995830590e+00
4.600000000000000533e+00 1.034214074774447711e+00
4.620000000000000107e+00 1.029107199394603711e+00
4.639999999999999680e+00 1.024023495316326970e+00
4.660000000000000142e+00 1.018962947709111777e+00
4.679999999999999716e+00 1.013925544170192428e+00
4.700000000000000178e+00 1.008911265813543512e+00
4.719999999999999751e+00 1.003920096530125150e+00
4.740000000000000213e+00 9.989520135287529579e-01
4.759999999999999787e+00 9.940069971473070032e-01
4.780000000000000249e+00 9.890850208364105889e-01
4.799999999999999822e+00 9.841860615307405080e-01
4.820000000000000284e+00 9.793100890664079294e-01
4.839999999999999858e+00 9.744570771214221550e-01
4.860000000000000320e+00 9.696269920576587875e-01
4.879999999999999893e+00 9.648198044396638640e-01
4.900000000000000355e+00 9.600354772920475233e-01
4.919999999999999929e+00 9.552739782057775297e-01
4.940000000000000391e+00 9.505352670017709338e-01
4.959999999999999964e+00 9.458193084339736600e-01
4.980000000000000426e+00 9.411260592499032240e-01
5.000000000000000000e+00 9.364554814997333443e-01
5.020000000000000462e+00 9.318075289845039189e-01
5.040000000000000036e+00 9.271821611805796115e-01
5.060000000000000497e+00 9.225793290661939983e-01
5.080000000000000071e+00 9.179989896705922359e-01
5.100000000000000533e+00 9.134410912695447582e-01
5.120000000000000107e+00 9.089055885686302405e-01
5.139999999999999680e+00 9.043924272582947177e-01
5.160000000000000142e+00 8.999015598406812089e-01
5.179999999999999716e+00 8.954329295347815965e-01
5.200000000000000178e+00 8.909864867563559443e-01
5.219999999999999751e+00 8.865621723636700757e-01
5.240000000000000213e+00 8.821599348000023211e-01
5.259999999999999787e+00 8.777797126704142139e-01
5.280000000000000249e+00 8.734214525564860665e-01
5.299999999999999822e+00 8.690850909145380054e-01
5.320000000000000284e+00 8.647705725721641645e-01
5.339999999999999858e+00 8.604778319382695440e-01
5.360000000000000320e+00 8.562068121911529106e-01
5.379999999999999893e+00 8.519574457906400333e-01
5.400000000000000355e+00 8.477296743674253010e-01
5.419999999999999929e+00 8.435234285275577948e-01
5.440000000000000391e+00 8.393386484528779778e-01
5.459999999999999964e+00 8.351752629880644374e-01
5.480000000000000426e+00 8.310332109619521512e-01
5.500000000000000000e+00 8.269124195473034344e-01
5.520000000000000462e+00 8.228128263129562692e-01
5.540000000000000036e+00 8.187343568463962828e-01
5.560000000000000497e+00 8.146769475466733024e-01
5.580000000000000071e+00 8.106405224998024517e-01
5.600000000000000533e+00 8.066250170224859017e-01
5.620000000000000107e+00 8.026303537803650689e-01
5.639999999999999680e+00 7.986564670925545562e-01
5.660000000000000142e+00 7.947032782826618513e-01
5.679999999999999716e+00 7.907707207543279715e-01
5.700000000000000178e+00 7.868587145648556769e-01
5.719999999999999751e+00 7.829671922819253504e-01
5.740000000000000213e+00 7.790960727696444321e-01
5.759999999999999787e+00 7.752452878367009914e-01
5.780000000000000249e+00 7.714147552245887995e-01
5.799999999999999822e+00 7.676044060574939154e-01
5.820000000000000284e+00 7.638141570223629939e-01
5.839999999999999858e+00 7.600439386309266743e-01
5.860000000000000320e+00 7.562936665812334258e-01
5.879999999999999893e+00 7.525632708422334005e-01
5.900000000000000355e+00 7.488526661863141864e-01
5.919999999999999929e+00 7.451617821069836944e-01
5.940000000000000391e+00 7.414905325119017787e-01
5.959999999999999964e+00 7.378388464842112748e-01
5.980000000000000426e+00 7.342066371254581947e-01
6.000000000000000000e+00 7.305938331712725775e-01
6.020000000000000462e+00 7.270003469735140111e-01
6.040000000000000036e+00 7.234261069809807543e-01
6.060000000000000497e+00 7.198710248500667097e-01
6.080000000000000071e+00 7.163350288013169420e-01
6.100000000000000533e+00 7.128180298477714283e-01
6.120000000000000107e+00 7.093199560382462687e-01
6.140000000000000568e+00 7.058407177924566067e-01
6.160000000000000142e+00 7.023802430419865406e-01
6.179999999999999716e+00 6.989384416612633988e-01
6.200000000000000178e+00 6.955152415172023428e-01
6.219999999999999751e+00 6.921105519849668486e-01
6.240000000000000213e+00 6.887243009174534025e-01
6.259999999999999787e+00 6.853563972347230804e-01
6.280000000000000249e+00 6.820067688244525472e-01
6.299999999999999822e+00 6.786753241938375814e-01
6.320000000000000284e+00 6.753619913123375396e-01
6.339999999999999858e+00 6.720666783147533074e-01
6.360000000000000320e+00 6.687893132975687438e-01
6.379999999999999893e+00 6.655298040618526922e-01
6.400000000000000355e+00 6.622880788746605685e-01
6.419999999999999929e+00 6.590640452402968252e-01
6.440000000000000391e+00 6.558576316382829230e-01
6.459999999999999964e+00 6.526687453114278226e-01
6.480000000000000426e+00 6.494973149920019173e-01
6.500000000000000000e+00 6.463432476949919625e-01
6.520000000000000462e+00 6.432064724441448611e-01
6.540000000000000036e+00 6.400868960586801881e-01
6.560000000000000497e+00 6.369844478910329233e-01
6.580000000000000071e+00 6.338990345952129069e-01
6.600000000000000533e+00 6.308305858880973727e-01
6.620000000000000107e+00 6.277790082875089883e-01
6.640000000000000568e+00 6.247442319090897866e-01
6.660000000000000142e+00 6.217261631620976114e-01
6.679999999999999716e+00 6.187247325938807219e-01
6.700000000000000178e+00 6.157398465313049796e-01
6.719999999999999751e+00 6.127714359850404691e-01
6.740000000000000213e+00 6.098194072244059738e-01
6.759999999999999787e+00 6.068836917537098197e-01
6.780000000000000249e+00 6.039641958082148099e-01
6.799999999999999822e+00 6.010608514149330395e-01
6.820000000000000284e+00 5.981735647973077663e-01
6.839999999999999858e+00 5.953022685329111274e-01
6.860000000000000320e+00 5.924468688543319539e-01
6.879999999999999893e+00 5.896072989163839706e-01
6.900000000000000355e+00 5.867834649805934166e-01
6.919999999999999929e+00 5.839753008045672766e-01
6.940000000000000391e+00 5.811827126973638791e-01
6.959999999999999964e+00 5.784056350438275818e-01
6.980000000000000426e+00 5.756439742180488039e-01
7.000000000000000000e+00 5.728976652555120008e-01
7.020000000000000462e+00 5.701666146117007061e-01
7.040000000000000036e+00 5.674507579951169056e-01
7.060000000000000497e+00 5.647500019579796415e-01
7.080000000000000071e+00 5.620642829031912147e-01
7.100000000000000533e+00 5.593935074939937468e-01
7.120000000000000107e+00 5.567376128481269504e-01
7.140000000000000568e+00 5.540965057531791471e-01
7.160000000000000142e+00 5.514701240612489563e-01
7.179999999999999716e+00 5.488583746966014809e-01
7.200000000000000178e+00 5.462611962643232344e-01
7.219999999999999751e+00 5.436784958368026111e-01
7.240000000000000213e+00 5.411102127898922420e-01
7.259999999999999787e+00 5.385562543546116299e-01
7.280000000000000249e+00 5.360165606945357375e-01
7.299999999999999822e+00 5.334910392089902142e-01
7.320000000000000284e+00 5.309796308654384234e-01
7.339999999999999858e+00 5.284822432403264436e-01
7.360000000000000320e+00 5.259988181204041657e-01
7.379999999999999893e+00 5.235292632672737811e-01
7.400000000000000355e+00 5.210735213016344236e-01
7.419999999999999929e+00 5.186315001774660649e-01
7.440000000000000391e+00 5.162031433633869071e-01
7.459999999999999964e+00 5.137883590122496180e-01
7.480000000000000426e+00 5.113870914538743984e-01
7.500000000000000000e+00 5.089992490457306840e-01
7.520000000000000462e+00 5.066247769914677956e-01
7.540000000000000036e+00 5.042635838582572028e-01
7.560000000000000497e+00 5.019156157355799674e-01
7.580000000000000071e+00 4.995807814046644424e-01
7.600000000000000533e+00 4.972590278522238671e-01
7.620000000000000107e+00 4.949502640773060791e-01
7.640000000000000568e+00 4.926544379746852775e-01
7.660000000000000142e+00 4.903714587642987732e-01
7.679999999999999716e+00 4.881012752592561732e-01
7.700000000000000178e+00 4.858437969029095194e-01
7.719999999999999751e+00 4.835989734364345982e-01
7.740000000000000213e+00 4.813667145284975524e-01
7.759999999999999787e+00 4.791469708575752939e-01
7.780000000000000249e+00 4.769396523190194692e-01
7.799999999999999822e+00 4.747447105373514553e-01
7.820000000000000284e+00 4.725620556354017676e-01
7.839999999999999858e+00 4.703916401920102963e-01
7.860000000000000320e+00 4.682333745578053374e-01
7.879999999999999893e+00 4.660872122737743650e-01
