# Electrodo circular de radio 6 mm y espesor 710.0 um.
# Volumen de simulacion (convencion z,y,x):
# N: 1024 x 1024 x 1024 | voxelSize:  0.02mm x 0.02mm x 0.02mm | FOV:  20.48mm x 20.48mm x 20.48mm
# 
# z [mm]		 delta[ppm]
0.000000000000000000e+00 2.428735486626466766e+00
2.000000000000000042e-02 2.426009985280154879e+00
4.000000000000000083e-02 2.423202188391604839e+00
5.999999999999999778e-02 2.420312614961864117e+00
8.000000000000000167e-02 2.417341797802329495e+00
1.000000000000000056e-01 2.414290285233848810e+00
1.199999999999999956e-01 2.411158634562035274e+00
1.400000000000000133e-01 2.407947418355089297e+00
1.600000000000000033e-01 2.404657219242930744e+00
1.799999999999999933e-01 2.401288634301071312e+00
2.000000000000000111e-01 2.397842270498208084e+00
2.200000000000000011e-01 2.394318748855716716e+00
2.399999999999999911e-01 2.390718699652587542e+00
2.600000000000000089e-01 2.387042766769629232e+00
2.800000000000000266e-01 2.383291602740154058e+00
2.999999999999999889e-01 2.379465873273260534e+00
3.200000000000000067e-01 2.375566252076309670e+00
3.400000000000000244e-01 2.371593425572793734e+00
3.599999999999999867e-01 2.367548087542495683e+00
3.800000000000000044e-01 2.363430944026913227e+00
4.000000000000000222e-01 2.359242707758304913e+00
4.199999999999999845e-01 2.354984103255834960e+00
4.400000000000000022e-01 2.350655861069053554e+00
4.600000000000000200e-01 2.346258723060655083e+00
4.799999999999999822e-01 2.341793436450171129e+00
5.000000000000000000e-01 2.337260759283300349e+00
5.200000000000000178e-01 2.332661454293158521e+00
5.400000000000000355e-01 2.327996294552773904e+00
5.600000000000000533e-01 2.323266057146431418e+00
5.799999999999999600e-01 2.318471529003964360e+00
5.999999999999999778e-01 2.313613500395355960e+00
6.199999999999999956e-01 2.308692770943595818e+00
6.400000000000000133e-01 2.303710142938801386e+00
6.600000000000000311e-01 2.298666427527498168e+00
6.800000000000000488e-01 2.293562437857115999e+00
7.000000000000000666e-01 2.288398995438345018e+00
7.199999999999999734e-01 2.283176923118604318e+00
7.399999999999999911e-01 2.277897051614858004e+00
7.600000000000000089e-01 2.272560212325385187e+00
7.800000000000000266e-01 2.267167244029582918e+00
8.000000000000000444e-01 2.261718985538228921e+00
8.200000000000000622e-01 2.256216282557197417e+00
8.399999999999999689e-01 2.250659980184618991e+00
8.599999999999999867e-01 2.245050929934841566e+00
8.800000000000000044e-01 2.239389982083791697e+00
9.000000000000000222e-01 2.233677992849733229e+00
9.200000000000000400e-01 2.227915816594612686e+00
9.400000000000000577e-01 2.222104313157746258e+00
9.599999999999999645e-01 2.216244339915230732e+00
9.799999999999999822e-01 2.210336759262820028e+00
1.000000000000000000e+00 2.204382430540776650e+00
1.020000000000000018e+00 2.198382217661771332e+00
1.040000000000000036e+00 2.192336980903933696e+00
1.060000000000000053e+00 2.186247584679744005e+00
1.080000000000000071e+00 2.180114889204319617e+00
1.100000000000000089e+00 2.173939758400914801e+00
1.120000000000000107e+00 2.167723051447718596e+00
1.140000000000000124e+00 2.161465630815620820e+00
1.159999999999999920e+00 2.155168353700360306e+00
1.179999999999999938e+00 2.148832080187931926e+00
1.199999999999999956e+00 2.142457664575782683e+00
1.219999999999999973e+00 2.136045963661235447e+00
1.239999999999999991e+00 2.129597827958417788e+00
1.260000000000000009e+00 2.123114110104860952e+00
1.280000000000000027e+00 2.116595655978190216e+00
1.300000000000000044e+00 2.110043313216007910e+00
1.320000000000000062e+00 2.103457922238959998e+00
1.340000000000000080e+00 2.096840324878805450e+00
1.360000000000000098e+00 2.090191355312184029e+00
1.380000000000000115e+00 2.083511848791746335e+00
1.400000000000000133e+00 2.076802632497167789e+00
1.419999999999999929e+00 2.070064534364004061e+00
1.439999999999999947e+00 2.063298373856559564e+00
1.459999999999999964e+00 2.056504970889080575e+00
1.479999999999999982e+00 2.049685136526999685e+00
1.500000000000000000e+00 2.042839681994925716e+00
1.520000000000000018e+00 2.035969409311094047e+00
1.540000000000000036e+00 2.029075120376517383e+00
1.560000000000000053e+00 2.022157607549178948e+00
1.580000000000000071e+00 2.015217662808595378e+00
1.600000000000000089e+00 2.008256068274763884e+00
1.620000000000000107e+00 2.001273605442319692e+00
1.640000000000000124e+00 1.994271045650769070e+00
1.660000000000000142e+00 1.987249159382275421e+00
1.679999999999999938e+00 1.980208706688399545e+00
1.699999999999999956e+00 1.973150446545490988e+00
1.719999999999999973e+00 1.966075127244489629e+00
1.739999999999999991e+00 1.958983495797761654e+00
1.760000000000000009e+00 1.951876288297376139e+00
1.780000000000000027e+00 1.944754239367141757e+00
1.800000000000000044e+00 1.937618072495972621e+00
1.820000000000000062e+00 1.930468509528779020e+00
1.840000000000000080e+00 1.923306260980503390e+00
1.860000000000000098e+00 1.916132035559442892e+00
1.880000000000000115e+00 1.908946530468608627e+00
1.900000000000000133e+00 1.901750440954981691e+00
1.919999999999999929e+00 1.894544450603900865e+00
1.939999999999999947e+00 1.887329240907692496e+00
1.959999999999999964e+00 1.880105481559803060e+00
1.979999999999999982e+00 1.872873840036098914e+00
2.000000000000000000e+00 1.865634971894643668e+00
2.020000000000000018e+00 1.858389530362944742e+00
2.040000000000000036e+00 1.851138156650129707e+00
2.060000000000000053e+00 1.843881489533319096e+00
2.080000000000000071e+00 1.836620155688230893e+00
2.100000000000000089e+00 1.829354779267795550e+00
2.120000000000000107e+00 1.822085972258038922e+00
2.140000000000000124e+00 1.814814344041970839e+00
2.160000000000000142e+00 1.807540491786909786e+00
2.180000000000000160e+00 1.800265009986631526e+00
2.200000000000000178e+00 1.792988480887054425e+00
2.220000000000000195e+00 1.785711483999549376e+00
2.240000000000000213e+00 1.778434586571293607e+00
2.260000000000000231e+00 1.771158353062602497e+00
2.280000000000000249e+00 1.763883335668936958e+00
2.300000000000000266e+00 1.756610083755043794e+00
2.319999999999999840e+00 1.749339134435056398e+00
2.339999999999999858e+00 1.742071021956185684e+00
2.359999999999999876e+00 1.734806268343986435e+00
2.379999999999999893e+00 1.727545392728274232e+00
2.399999999999999911e+00 1.720288902060115976e+00
2.419999999999999929e+00 1.713037300372610261e+00
2.439999999999999947e+00 1.705791079576758795e+00
2.459999999999999964e+00 1.698550728649679487e+00
2.479999999999999982e+00 1.691316724516044756e+00
2.500000000000000000e+00 1.684089541156266856e+00
2.520000000000000018e+00 1.676869640580734400e+00
2.540000000000000036e+00 1.669657481850456371e+00
2.560000000000000053e+00 1.662453512150898538e+00
2.580000000000000071e+00 1.655258175717525315e+00
2.600000000000000089e+00 1.648071905016553762e+00
2.620000000000000107e+00 1.640895129567800259e+00
2.640000000000000124e+00 1.633728267239260568e+00
2.660000000000000142e+00 1.626571732959621652e+00
2.680000000000000160e+00 1.619425930134076985e+00
2.700000000000000178e+00 1.612291259238810559e+00
2.720000000000000195e+00 1.605168109365075146e+00
2.740000000000000213e+00 1.598056866687934452e+00
2.760000000000000231e+00 1.590957906146086343e+00
2.780000000000000249e+00 1.583871599777116002e+00
2.800000000000000266e+00 1.576798308540175997e+00
2.819999999999999840e+00 1.569738390509978654e+00
2.839999999999999858e+00 1.562692192849893580e+00
2.859999999999999876e+00 1.555660059856851962e+00
2.879999999999999893e+00 1.548642325092095540e+00
2.899999999999999911e+00 1.541639319269138220e+00
2.919999999999999929e+00 1.534651362549822595e+00
2.939999999999999947e+00 1.527678772267429652e+00
2.959999999999999964e+00 1.520721855395377631e+00
2.979999999999999982e+00 1.513780916097587026e+00
3.000000000000000000e+00 1.506856248377519192e+00
3.020000000000000018e+00 1.499948143447862980e+00
3.040000000000000036e+00 1.493056882567332044e+00
3.060000000000000053e+00 1.486182744221694607e+00
3.080000000000000071e+00 1.479325997156144545e+00
3.100000000000000089e+00 1.472486907359662034e+00
3.120000000000000107e+00 1.465665731300459296e+00
3.140000000000000124e+00 1.458862722705670745e+00
3.160000000000000142e+00 1.452078126007741110e+00
3.180000000000000160e+00 1.445312182911369980e+00
3.200000000000000178e+00 1.438565126058451771e+00
3.220000000000000195e+00 1.431837185374233545e+00
3.240000000000000213e+00 1.425128581958698959e+00
3.260000000000000231e+00 1.418439534203842500e+00
3.280000000000000249e+00 1.411770251919214569e+00
3.300000000000000266e+00 1.405120942212179092e+00
3.320000000000000284e+00 1.398491803855606008e+00
3.339999999999999858e+00 1.391883032922972774e+00
3.359999999999999876e+00 1.385294817405976930e+00
3.379999999999999893e+00 1.378727342596319128e+00
3.399999999999999911e+00 1.372180785961301330e+00
3.419999999999999929e+00 1.365655322264085481e+00
3.439999999999999947e+00 1.359151118705119510e+00
3.459999999999999964e+00 1.352668339772705952e+00
3.479999999999999982e+00 1.346207142658347067e+00
3.500000000000000000e+00 1.339767681829371782e+00
3.520000000000000018e+00 1.333350104726156671e+00
3.540000000000000036e+00 1.326954556048571598e+00
3.560000000000000053e+00 1.320581173743227588e+00
3.580000000000000071e+00 1.314230092995458232e+00
3.600000000000000089e+00 1.307901442514622481e+00
3.620000000000000107e+00 1.301595348223340221e+00
3.640000000000000124e+00 1.295311929849047194e+00
3.660000000000000142e+00 1.289051304302190948e+00
3.680000000000000160e+00 1.282813582582119194e+00
3.700000000000000178e+00 1.276598872835880139e+00
3.720000000000000195e+00 1.270407277586754313e+00
3.740000000000000213e+00 1.264238896465313067e+00
3.760000000000000231e+00 1.258093823768697606e+00
3.780000000000000249e+00 1.251972150855600097e+00
3.800000000000000266e+00 1.245873964044624582e+00
3.820000000000000284e+00 1.239799346664781421e+00
3.839999999999999858e+00 1.233748377301156385e+00
3.859999999999999876e+00 1.227721131492508500e+00
3.879999999999999893e+00 1.221717680332625511e+00
3.899999999999999911e+00 1.215738091806599863e+00
3.919999999999999929e+00 1.209782429756149691e+00
3.939999999999999947e+00 1.203850754846116811e+00
3.959999999999999964e+00 1.197943123902198037e+00
3.979999999999999982e+00 1.192059590499192856e+00
4.000000000000000000e+00 1.186200204679491277e+00
4.020000000000000462e+00 1.180365013154568654e+00
4.040000000000000036e+00 1.174554059412713958e+00
4.060000000000000497e+00 1.168767383525293413e+00
4.080000000000000071e+00 1.163005022652089826e+00
4.099999999999999645e+00 1.157267010443816524e+00
4.120000000000000107e+00 1.151553377953607349e+00
4.139999999999999680e+00 1.145864152627217969e+00
4.160000000000000142e+00 1.140199359629149312e+00
4.179999999999999716e+00 1.134559020411950669e+00
4.200000000000000178e+00 1.128943154465559706e+00
4.219999999999999751e+00 1.123351777457129996e+00
4.240000000000000213e+00 1.117784903412107900e+00
4.259999999999999787e+00 1.112242542415956326e+00
4.280000000000000249e+00 1.106724703235604457e+00
4.299999999999999822e+00 1.101231390574457070e+00
4.320000000000000284e+00 1.095762608142791583e+00
4.339999999999999858e+00 1.090318355457352117e+00
4.360000000000000320e+00 1.084898631369444422e+00
4.379999999999999893e+00 1.079503430400418296e+00
4.400000000000000355e+00 1.074132746736063515e+00
4.419999999999999929e+00 1.068786570089308441e+00
4.440000000000000391e+00 1.063464890169650623e+00
4.459999999999999964e+00 1.058167692064351018e+00
4.480000000000000426e+00 1.052894961191610967e+00
4.500000000000000000e+00 1.047646678191453962e+00
4.520000000000000462e+00 1.042422824371491474e+00
4.540000000000000036e+00 1.037223376098741268e+00
4.560000000000000497e+00 1.032048310746690900e+00
4.580000000000000071e+00 1.026897600579238956e+00
4.600000000000000533e+00 1.021771219207958659e+00
4.620000000000000107e+00 1.016669134959310217e+00
4.639999999999999680e+00 1.011591317850927929e+00
4.660000000000000142e+00 1.006537732433234300e+00
4.679999999999999716e+00 1.001508345293672830e+00
4.700000000000000178e+00 9.965031173638432271e-01
4.719999999999999751e+00 9.915220119605736571e-01
4.740000000000000213e+00 9.865649865496191051e-01
4.759999999999999787e+00 9.816320013325896543e-01
4.780000000000000249e+00 9.767230104582642625e-01
4.799999999999999822e+00 9.718379711643158059e-01
4.820000000000000284e+00 9.669768344272510197e-01
4.839999999999999858e+00 9.621395546679950561e-01
4.860000000000000320e+00 9.573260798314542352e-01
4.879999999999999893e+00 9.525363616649602516e-01
4.900000000000000355e+00 9.477703452184034205e-01
4.919999999999999929e+00 9.430279797046889900e-01
4.940000000000000391e+00 9.383092074113413839e-01
4.959999999999999964e+00 9.336139751520601271e-01
4.980000000000000426e+00 9.289422225806762690e-01
5.000000000000000000e+00 9.242938942430209970e-01
5.020000000000000462e+00 9.196689272840766760e-01
5.040000000000000036e+00 9.150672641093138271e-01
5.060000000000000497e+00 9.104888394758462455e-01
5.080000000000000071e+00 9.059335937725203625e-01
5.100000000000000533e+00 9.014014594858477114e-01
5.120000000000000107e+00 8.968923751080881690e-01
5.139999999999999680e+00 8.924062709686719774e-01
5.160000000000000142e+00 8.879430837796588039e-01
5.179999999999999716e+00 8.835027418233373231e-01
5.200000000000000178e+00 8.790851801443780866e-01
5.219999999999999751e+00 8.746903250842558153e-01
5.240000000000000213e+00 8.703181101295498490e-01
5.259999999999999787e+00 8.659684597837895570e-01
5.280000000000000249e+00 8.616413060813127300e-01
5.299999999999999822e+00 8.573365717871049840e-01
5.320000000000000284e+00 8.530541875857370337e-01
5.339999999999999858e+00 8.487940745997225589e-01
5.360000000000000320e+00 8.445561622630453069e-01
5.379999999999999893e+00 8.403403701484766231e-01
5.400000000000000355e+00 8.361466265353468819e-01
5.419999999999999929e+00 8.319748495362399021e-01
5.440000000000000391e+00 8.278249663686028104e-01
5.459999999999999964e+00 8.236968937711920402e-01
5.480000000000000426e+00 8.195905579892420745e-01
5.500000000000000000e+00 8.155058744709967611e-01
5.520000000000000462e+00 8.114427685761316233e-01
5.540000000000000036e+00 8.074011545426256209e-01
5.560000000000000497e+00 8.033809569282989171e-01
5.580000000000000071e+00 7.993820888382257017e-01
5.600000000000000533e+00 7.954044741091735871e-01
5.620000000000000107e+00 7.914480247877543340e-01
5.639999999999999680e+00 7.875126640676902712e-01
5.660000000000000142e+00 7.835983030088012891e-01
5.679999999999999716e+00 7.797048642370308924e-01
5.700000000000000178e+00 7.758322578942957737e-01
5.719999999999999751e+00 7.719804061113479943e-01
5.740000000000000213e+00 7.681492181784859152e-01
5.759999999999999787e+00 7.643386158012545062e-01
5.780000000000000249e+00 7.605485074819532398e-01
5.799999999999999822e+00 7.567788145683751466e-01
5.820000000000000284e+00 7.530294448359731163e-01
5.839999999999999858e+00 7.493003193397714812e-01
5.860000000000000320e+00 7.455913451870019859e-01
5.879999999999999893e+00 7.419024432025093096e-01
5.900000000000000355e+00 7.382335198815912491e-01
5.919999999999999929e+00 7.345844958791625245e-01
5.940000000000000391e+00 7.309552771324842046e-01
5.959999999999999964e+00 7.273457841845329952e-01
5.980000000000000426e+00 7.237559224662095669e-01
6.000000000000000000e+00 7.201856124643365442e-01
6.020000000000000462e+00 7.166347591528789973e-01
6.040000000000000036e+00 7.131032830161446734e-01
6.060000000000000497e+00 7.095910886185005095e-01
6.080000000000000071e+00 7.060980964933091242e-01
6.100000000000000533e+00 7.026242108405227338e-01
6.120000000000000107e+00 6.991693522921201831e-01
6.140000000000000568e+00 6.957334247268717187e-01
6.160000000000000142e+00 6.923163489229600120e-01
6.179999999999999716e+00 6.889180284791860398e-01
6.200000000000000178e+00 6.855383843656468468e-01
6.219999999999999751e+00 6.821773199405221089e-01
6.240000000000000213e+00 6.788347564096887110e-01
6.259999999999999787e+00 6.755105969281750555e-01
6.280000000000000249e+00 6.722047629797227586e-01
6.299999999999999822e+00 6.689171575519153867e-01
6.320000000000000284e+00 6.656477024467259973e-01
6.339999999999999858e+00 6.623963005182273989e-01
6.360000000000000320e+00 6.591628739253134750e-01
6.379999999999999893e+00 6.559473254208434412e-01
6.400000000000000355e+00 6.527495775577141224e-01
6.419999999999999929e+00 6.495695330181769922e-01
6.440000000000000391e+00 6.464071147846519594e-01
6.459999999999999964e+00 6.432622254978701548e-01
6.480000000000000426e+00 6.401347886037771495e-01
6.500000000000000000e+00 6.370247067290844001e-01
6.520000000000000462e+00 6.339319038158132136e-01
6.540000000000000036e+00 6.308562825027219656e-01
6.560000000000000497e+00 6.277977672590387970e-01
6.580000000000000071e+00 6.247562607601587770e-01
6.600000000000000533e+00 6.217316880322940609e-01
6.620000000000000107e+00 6.187239518107178204e-01
6.640000000000000568e+00 6.157329777070806864e-01
6.660000000000000142e+00 6.127586685383955567e-01
6.679999999999999716e+00 6.098009505289311294e-01
6.700000000000000178e+00 6.068597265980463229e-01
6.719999999999999751e+00 6.039349236085910233e-01
6.740000000000000213e+00 6.010264446015712858e-01
6.759999999999999787e+00 5.981342171031920341e-01
6.780000000000000249e+00 5.952581442942512790e-01
6.799999999999999822e+00 5.923981543879432987e-01
6.820000000000000284e+00 5.895541507217695321e-01
6.839999999999999858e+00 5.867260622184531371e-01
6.860000000000000320e+00 5.839137923880389769e-01
6.879999999999999893e+00 5.811172708842532453e-01
6.900000000000000355e+00 5.783364014043752555e-01
6.919999999999999929e+00 5.755711143535928720e-01
6.940000000000000391e+00 5.728213136301129049e-01
6.959999999999999964e+00 5.700869304100496526e-01
6.980000000000000426e+00 5.673678688051561059e-01
7.000000000000000000e+00 5.646640607810092805e-01
7.020000000000000462e+00 5.619754106745911137e-01
7.040000000000000036e+00 5.593018512585639090e-01
7.060000000000000497e+00 5.566432871058210052e-01
7.080000000000000071e+00 5.539996518128521563e-01
7.100000000000000533e+00 5.513708501982903520e-01
7.120000000000000107e+00 5.487568166983591844e-01
7.140000000000000568e+00 5.461574563863136333e-01
7.160000000000000142e+00 5.435727045532132706e-01
7.179999999999999716e+00 5.410024665350244844e-01
7.200000000000000178e+00 5.384466784919622606e-01
7.219999999999999751e+00 5.359052460299240650e-01
7.240000000000000213e+00 5.333781061918591027e-01
7.259999999999999787e+00 5.308651648600742901e-01
7.280000000000000249e+00 5.283663599731178717e-01
7.299999999999999822e+00 5.258815976953651328e-01
7.320000000000000284e+00 5.234108168731433919e-01
7.339999999999999858e+00 5.209539239578897529e-01
7.360000000000000320e+00 5.185108587152318371e-01
7.379999999999999893e+00 5.160815278878893020e-01
7.400000000000000355e+00 5.136658721716795828e-01
7.419999999999999929e+00 5.112637986042082305e-01
7.440000000000000391e+00 5.088752488217798131e-01
7.459999999999999964e+00 5.065001301597674699e-01
7.480000000000000426e+00 5.041383852046769087e-01
7.500000000000000000e+00 5.017899215919685574e-01
7.520000000000000462e+00 4.994546828675085481e-01
7.540000000000000036e+00 4.971325769685067675e-01
7.560000000000000497e+00 4.948235484088227554e-01
7.580000000000000071e+00 4.925275054285356835e-01
7.600000000000000533e+00 4.902443935176277745e-01
7.620000000000000107e+00 4.879741212195707334e-01
7.640000000000000568e+00 4.857166350081217887e-01
7.660000000000000142e+00 4.834718437301633864e-01
7.679999999999999716e+00 4.812396948504200633e-01
7.700000000000000178e+00 4.790200975186476029e-01
7.719999999999999751e+00 4.768130001972797904e-01
7.740000000000000213e+00 4.746183123379673630e-01
7.759999999999999787e+00 4.724359834071905628e-01
7.780000000000000249e+00 4.702659231569729648e-01
7.799999999999999822e+00 4.681080820637761875e-01
7.820000000000000284e+00 4.659623701780790106e-01
7.839999999999999858e+00 4.638287389918783199e-01
7.860000000000000320e+00 4.617070988516953634e-01
7.879999999999999893e+00 4.595974022702567496e-01
