# Electrodo circular de radio 6 mm y espesor 710.0 um.
# Volumen de simulacion (convencion z,y,x):
# N: 1024 x 1024 x 1024 | voxelSize:  0.02mm x 0.02mm x 0.02mm | FOV:  20.48mm x 20.48mm x 20.48mm
# 
# z [mm]		 delta[ppm]
0.000000000000000000e+00 3.671663473606374239e+00
2.000000000000000042e-02 3.653938339511708211e+00
4.000000000000000083e-02 3.635827568767475260e+00
5.999999999999999778e-02 3.617346143669063263e+00
8.000000000000000167e-02 3.598509156447855961e+00
1.000000000000000056e-01 3.579331774329426175e+00
1.199999999999999956e-01 3.559829202793669989e+00
1.400000000000000133e-01 3.540016664310067451e+00
1.600000000000000033e-01 3.519909364359274484e+00
1.799999999999999933e-01 3.499522477499513062e+00
2.000000000000000111e-01 3.478871112443364222e+00
2.200000000000000011e-01 3.457970300980111933e+00
2.399999999999999911e-01 3.436834964072363441e+00
2.600000000000000089e-01 3.415479902959400960e+00
2.800000000000000266e-01 3.393919766409011718e+00
2.999999999999999889e-01 3.372169044188590981e+00
3.200000000000000067e-01 3.350242035674968477e+00
3.400000000000000244e-01 3.328152845818596273e+00
3.599999999999999867e-01 3.305915355218001395e+00
3.800000000000000044e-01 3.283543218678133702e+00
4.000000000000000222e-01 3.261049836837033311e+00
4.199999999999999845e-01 3.238448357369020592e+00
4.400000000000000022e-01 3.215751648206380597e+00
4.600000000000000200e-01 3.192972301400219592e+00
4.799999999999999822e-01 3.170122607940824899e+00
5.000000000000000000e-01 3.147214564249584345e+00
5.200000000000000178e-01 3.124259848569630016e+00
5.400000000000000355e-01 3.101269830028149155e+00
5.600000000000000533e-01 3.078255546532408626e+00
5.799999999999999600e-01 3.055227716311191166e+00
5.999999999999999778e-01 3.032196717228500482e+00
6.199999999999999956e-01 3.009172600686989441e+00
6.400000000000000133e-01 2.986165072243937679e+00
6.600000000000000311e-01 2.963183507738713196e+00
6.800000000000000488e-01 2.940236935082149117e+00
7.000000000000000666e-01 2.917334052453915749e+00
7.199999999999999734e-01 2.894483211119080135e+00
7.399999999999999911e-01 2.871692435530295295e+00
7.600000000000000089e-01 2.848969407020801370e+00
7.800000000000000266e-01 2.826321485639633480e+00
8.000000000000000444e-01 2.803755694562741763e+00
8.200000000000000622e-01 2.781278743487137550e+00
8.399999999999999689e-01 2.758897013605061233e+00
8.599999999999999867e-01 2.736616582384239216e+00
8.800000000000000044e-01 2.714443208950322539e+00
9.000000000000000222e-01 2.692382360085075366e+00
9.200000000000000400e-01 2.670439195871386673e+00
9.400000000000000577e-01 2.648618596748227194e+00
9.599999999999999645e-01 2.626925149278568128e+00
9.799999999999999822e-01 2.605363174109264435e+00
1.000000000000000000e+00 2.583936711734930558e+00
1.020000000000000018e+00 2.562649551221540367e+00
1.040000000000000036e+00 2.541505215848781862e+00
1.060000000000000053e+00 2.520506992468000362e+00
1.080000000000000071e+00 2.499657916919959089e+00
1.100000000000000089e+00 2.478960803910015276e+00
1.120000000000000107e+00 2.458418232109143453e+00
1.140000000000000124e+00 2.438032574441825417e+00
1.159999999999999920e+00 2.417805982792667674e+00
1.179999999999999938e+00 2.397740418614832336e+00
1.199999999999999956e+00 2.377837637175492347e+00
1.219999999999999973e+00 2.358099218404638986e+00
1.239999999999999991e+00 2.338526550626073508e+00
1.260000000000000009e+00 2.319120861577744996e+00
1.280000000000000027e+00 2.299883201584868253e+00
1.300000000000000044e+00 2.280814474693625638e+00
1.320000000000000062e+00 2.261915421254677927e+00
1.340000000000000080e+00 2.243186649121761800e+00
1.360000000000000098e+00 2.224628615622223471e+00
1.380000000000000115e+00 2.206241658780894621e+00
1.400000000000000133e+00 2.188025978663934001e+00
1.419999999999999929e+00 2.169981668596222768e+00
1.439999999999999947e+00 2.152108695871366884e+00
1.459999999999999964e+00 2.134406932937782386e+00
1.479999999999999982e+00 2.116876137475373731e+00
1.500000000000000000e+00 2.099515983531471175e+00
1.520000000000000018e+00 2.082326040969511016e+00
1.540000000000000036e+00 2.065305806541136935e+00
1.560000000000000053e+00 2.048454682717982145e+00
1.580000000000000071e+00 2.031772008690563514e+00
1.600000000000000089e+00 2.015257038597524364e+00
1.620000000000000107e+00 1.998908972445546217e+00
1.640000000000000124e+00 1.982726933754558551e+00
1.660000000000000142e+00 1.966710000395764268e+00
1.679999999999999938e+00 1.950857181673293805e+00
1.699999999999999956e+00 1.935167449079751467e+00
1.719999999999999973e+00 1.919639712837644119e+00
1.739999999999999991e+00 1.904272852573535291e+00
1.760000000000000009e+00 1.889065693343550567e+00
1.780000000000000027e+00 1.874017036228538213e+00
1.800000000000000044e+00 1.859125633869724847e+00
1.820000000000000062e+00 1.844390220988145757e+00
1.840000000000000080e+00 1.829809489456717397e+00
1.860000000000000098e+00 1.815382118747747464e+00
1.880000000000000115e+00 1.801106750568692849e+00
1.900000000000000133e+00 1.786982019241781572e+00
1.919999999999999929e+00 1.773006525930397093e+00
1.939999999999999947e+00 1.759178868954847763e+00
1.959999999999999964e+00 1.745497617636771359e+00
1.979999999999999982e+00 1.731961342554872108e+00
2.000000000000000000e+00 1.718568589034049188e+00
2.020000000000000018e+00 1.705317907344591655e+00
2.040000000000000036e+00 1.692207825862790171e+00
2.060000000000000053e+00 1.679236881216597643e+00
2.080000000000000071e+00 1.666403591143562846e+00
2.100000000000000089e+00 1.653706484585429237e+00
2.120000000000000107e+00 1.641144074269068609e+00
2.140000000000000124e+00 1.628714886751825075e+00
2.160000000000000142e+00 1.616417434750093918e+00
2.180000000000000160e+00 1.604250247136572494e+00
2.200000000000000178e+00 1.592211841040825915e+00
2.220000000000000195e+00 1.580300751798893177e+00
2.240000000000000213e+00 1.568515504849099962e+00
2.260000000000000231e+00 1.556854645633781731e+00
2.280000000000000249e+00 1.545316711313217795e+00
2.300000000000000266e+00 1.533900260618537015e+00
2.319999999999999840e+00 1.522603845405574585e+00
2.339999999999999858e+00 1.511426040457318987e+00
2.359999999999999876e+00 1.500365414899136995e+00
2.379999999999999893e+00 1.489420561948436195e+00
2.399999999999999911e+00 1.478590070211644125e+00
2.419999999999999929e+00 1.467872553378146039e+00
2.439999999999999947e+00 1.457266621419039065e+00
2.459999999999999964e+00 1.446770910221752304e+00
2.479999999999999982e+00 1.436384052709640757e+00
2.500000000000000000e+00 1.426104708413134858e+00
2.520000000000000018e+00 1.415931534528867664e+00
2.540000000000000036e+00 1.405863215422652024e+00
2.560000000000000053e+00 1.395898433645959447e+00
2.580000000000000071e+00 1.386035899365496649e+00
2.600000000000000089e+00 1.376274321354533647e+00
2.620000000000000107e+00 1.366612436343404902e+00
2.640000000000000124e+00 1.357048980002348193e+00
2.660000000000000142e+00 1.347582716206808806e+00
2.680000000000000160e+00 1.338212408028216283e+00
2.700000000000000178e+00 1.328936846907533553e+00
2.720000000000000195e+00 1.319754823669651689e+00
2.740000000000000213e+00 1.310665157598287056e+00
2.760000000000000231e+00 1.301666667489433715e+00
2.780000000000000249e+00 1.292758200620373055e+00
2.800000000000000266e+00 1.283938603856958682e+00
2.819999999999999840e+00 1.275206752509194130e+00
2.839999999999999858e+00 1.266561521506930355e+00
2.859999999999999876e+00 1.258001814134217966e+00
2.879999999999999893e+00 1.249526533287376617e+00
2.899999999999999911e+00 1.241134610080074641e+00
2.919999999999999929e+00 1.232824975197608364e+00
2.939999999999999947e+00 1.224596587364420230e+00
2.959999999999999964e+00 1.216448404807855876e+00
2.979999999999999982e+00 1.208379413579699690e+00
3.000000000000000000e+00 1.200388599142527379e+00
3.020000000000000018e+00 1.192474974536668508e+00
3.040000000000000036e+00 1.184637552101778235e+00
3.060000000000000053e+00 1.176875371480474719e+00
3.080000000000000071e+00 1.169187471487693752e+00
3.100000000000000089e+00 1.161572917942122141e+00
3.120000000000000107e+00 1.154030775695413569e+00
3.140000000000000124e+00 1.146560136282462006e+00
3.160000000000000142e+00 1.139160090122483426e+00
3.180000000000000160e+00 1.131829753979094022e+00
3.200000000000000178e+00 1.124568243344828078e+00
3.220000000000000195e+00 1.117374699701935592e+00
3.240000000000000213e+00 1.110248263101839550e+00
3.260000000000000231e+00 1.103188099217523588e+00
3.280000000000000249e+00 1.096193372129058874e+00
3.300000000000000266e+00 1.089263271158401825e+00
3.320000000000000284e+00 1.082396983872075502e+00
3.339999999999999858e+00 1.075593722689190512e+00
3.359999999999999876e+00 1.068852698112001010e+00
3.379999999999999893e+00 1.062173145097951910e+00
3.399999999999999911e+00 1.055554296528802061e+00
3.419999999999999929e+00 1.048995409337501350e+00
3.439999999999999947e+00 1.042495738226234980e+00
3.459999999999999964e+00 1.036054561538958030e+00
3.479999999999999982e+00 1.029671155238681468e+00
3.500000000000000000e+00 1.023344818516522148e+00
3.520000000000000018e+00 1.017074848038229451e+00
3.540000000000000036e+00 1.010860563280644442e+00
3.560000000000000053e+00 1.004701281057456264e+00
3.580000000000000071e+00 9.985963405739811671e-01
3.600000000000000089e+00 9.925450782418560047e-01
3.620000000000000107e+00 9.865468524431150188e-01
3.640000000000000124e+00 9.806010186434760412e-01
3.660000000000000142e+00 9.747069538567638691e-01
3.680000000000000160e+00 9.688640320661757732e-01
3.700000000000000178e+00 9.630716483801263772e-01
3.720000000000000195e+00 9.573291947708938432e-01
3.740000000000000213e+00 9.516360839130441063e-01
3.760000000000000231e+00 9.459917252485505745e-01
3.780000000000000249e+00 9.403955484990245139e-01
3.800000000000000266e+00 9.348469800664287455e-01
3.820000000000000284e+00 9.293454662104004838e-01
3.839999999999999858e+00 9.238904497934063986e-01
3.859999999999999876e+00 9.184813931145354715e-01
3.879999999999999893e+00 9.131177550079271343e-01
3.899999999999999911e+00 9.077990133245000814e-01
3.919999999999999929e+00 9.025246423922413941e-01
3.939999999999999947e+00 8.972941351374080776e-01
3.959999999999999964e+00 8.921069809152704089e-01
3.979999999999999982e+00 8.869626872623944669e-01
4.000000000000000000e+00 8.818607581062121170e-01
4.020000000000000462e+00 8.768007151400866173e-01
4.040000000000000036e+00 8.717820764200401307e-01
4.060000000000000497e+00 8.668043773544122921e-01
4.080000000000000071e+00 8.618671496958735245e-01
4.099999999999999645e+00 8.569699421375599480e-01
4.120000000000000107e+00 8.521122997084766837e-01
4.139999999999999680e+00 8.472937839680771965e-01
4.160000000000000142e+00 8.425139528129876876e-01
4.179999999999999716e+00 8.377723802620906657e-01
4.200000000000000178e+00 8.330686366824353595e-01
4.219999999999999751e+00 8.284023081570059954e-01
4.240000000000000213e+00 8.237729771375107424e-01
4.259999999999999787e+00 8.191802413870717947e-01
4.280000000000000249e+00 8.146236950675823651e-01
4.299999999999999822e+00 8.101029472496459327e-01
4.320000000000000284e+00 8.056176034419939569e-01
4.339999999999999858e+00 8.011672836611093418e-01
4.360000000000000320e+00 7.967516044101750072e-01
4.379999999999999893e+00 7.923701963009147642e-01
4.400000000000000355e+00 7.880226864893420391e-01
4.419999999999999929e+00 7.837087158424363986e-01
4.440000000000000391e+00 7.794279218379790430e-01
4.459999999999999964e+00 7.751799552687607120e-01
4.480000000000000426e+00 7.709644636136171458e-01
4.500000000000000000e+00 7.667811072719362686e-01
4.520000000000000462e+00 7.626295434129912731e-01
4.540000000000000036e+00 7.585094417336440964e-01
4.560000000000000497e+00 7.544204687928753872e-01
4.580000000000000071e+00 7.503623032856500119e-01
4.600000000000000533e+00 7.463346208695623707e-01
4.620000000000000107e+00 7.423371089479080531e-01
4.639999999999999680e+00 7.383694519951979895e-01
4.660000000000000142e+00 7.344313458425680841e-01
4.679999999999999716e+00 7.305224835088922619e-01
4.700000000000000178e+00 7.266425689817567202e-01
4.719999999999999751e+00 7.227913035607534953e-01
4.740000000000000213e+00 7.189683991273098096e-01
4.759999999999999787e+00 7.151735650067453376e-01
4.780000000000000249e+00 7.114065207203269514e-01
4.799999999999999822e+00 7.076669833725148795e-01
4.820000000000000284e+00 7.039546798787106319e-01
4.839999999999999858e+00 7.002693348840997034e-01
4.860000000000000320e+00 6.966106824606228543e-01
4.879999999999999893e+00 6.929784545636964443e-01
4.900000000000000355e+00 6.893723921920130726e-01
4.919999999999999929e+00 6.857922343884144123e-01
4.940000000000000391e+00 6.822377288561917164e-01
4.959999999999999964e+00 6.787086215102587916e-01
4.980000000000000426e+00 6.752046665436810535e-01
5.000000000000000000e+00 6.717256165353039377e-01
5.020000000000000462e+00 6.682712319603295592e-01
5.040000000000000036e+00 6.648412718603833316e-01
5.060000000000000497e+00 6.614355027920343355e-01
5.080000000000000071e+00 6.580536900653156662e-01
5.100000000000000533e+00 6.546956061241157032e-01
5.120000000000000107e+00 6.513610223590510229e-01
5.139999999999999680e+00 6.480497169137215963e-01
5.160000000000000142e+00 6.447614670778436530e-01
5.179999999999999716e+00 6.414960565134208981e-01
5.200000000000000178e+00 6.382532682339149277e-01
5.219999999999999751e+00 6.350328912444462848e-01
5.240000000000000213e+00 6.318347141128001221e-01
5.259999999999999787e+00 6.286585310178161023e-01
5.280000000000000249e+00 6.255041359179078775e-01
5.299999999999999822e+00 6.223713280018646765e-01
5.320000000000000284e+00 6.192599064605756043e-01
5.339999999999999858e+00 6.161696753345152766e-01
5.360000000000000320e+00 6.131004388942521421e-01
5.379999999999999893e+00 6.100520058789206113e-01
5.400000000000000355e+00 6.070241854911493373e-01
5.419999999999999929e+00 6.040167910208553703e-01
5.440000000000000391e+00 6.010296364601008801e-01
5.459999999999999964e+00 5.980625395065970462e-01
5.480000000000000426e+00 5.951153188040418929e-01
5.500000000000000000e+00 5.921877963197573758e-01
5.520000000000000462e+00 5.892797952159373187e-01
5.540000000000000036e+00 5.863911415958839024e-01
5.560000000000000497e+00 5.835216630116547565e-01
5.580000000000000071e+00 5.806711895733791540e-01
5.600000000000000533e+00 5.778395530986896178e-01
5.620000000000000107e+00 5.750265875796318760e-01
5.639999999999999680e+00 5.722321289793239618e-01
5.660000000000000142e+00 5.694560150509968555e-01
5.679999999999999716e+00 5.666980857872109256e-01
5.700000000000000178e+00 5.639581825855936037e-01
5.719999999999999751e+00 5.612361493560235060e-01
5.740000000000000213e+00 5.585318310276325970e-01
5.759999999999999787e+00 5.558450753192616389e-01
5.780000000000000249e+00 5.531757305823260529e-01
5.799999999999999822e+00 5.505236482399176179e-01
5.820000000000000284e+00 5.478886799601517810e-01
5.839999999999999858e+00 5.452706807691748425e-01
5.860000000000000320e+00 5.426695055496180142e-01
5.879999999999999893e+00 5.400850128328900102e-01
5.900000000000000355e+00 5.375170606173460541e-01
5.919999999999999929e+00 5.349655108451333296e-01
5.940000000000000391e+00 5.324302245347072304e-01
5.959999999999999964e+00 5.299110669475968205e-01
5.980000000000000426e+00 5.274079020298867437e-01
6.000000000000000000e+00 5.249205982741819154e-01
6.020000000000000462e+00 5.224490224646765046e-01
6.040000000000000036e+00 5.199930462396890052e-01
6.060000000000000497e+00 5.175525391349374837e-01
6.080000000000000071e+00 5.151273758519394619e-01
6.100000000000000533e+00 5.127174285940935272e-01
6.120000000000000107e+00 5.103225750463399324e-01
6.140000000000000568e+00 5.079426899986519972e-01
6.160000000000000142e+00 5.055776540422688425e-01
6.179999999999999716e+00 5.032273444751736990e-01
6.200000000000000178e+00 5.008916447203426436e-01
6.219999999999999751e+00 4.985704345077505706e-01
6.240000000000000213e+00 4.962636000200114084e-01
6.259999999999999787e+00 4.939710233454469579e-01
6.280000000000000249e+00 4.916925933565933771e-01
6.299999999999999822e+00 4.894281944288427222e-01
6.320000000000000284e+00 4.871777180572403609e-01
6.339999999999999858e+00 4.849410508351705285e-01
6.360000000000000320e+00 4.827180868149926196e-01
6.379999999999999893e+00 4.805087147412182569e-01
6.400000000000000355e+00 4.783128311604751826e-01
6.419999999999999929e+00 4.761303269035740415e-01
6.440000000000000391e+00 4.739611009504300365e-01
6.459999999999999964e+00 4.718050461553922048e-01
6.480000000000000426e+00 4.696620638726891062e-01
6.500000000000000000e+00 4.675320489193341422e-01
6.520000000000000462e+00 4.654149049668203642e-01
6.540000000000000036e+00 4.633105287358786906e-01
6.560000000000000497e+00 4.612188261600863592e-01
6.580000000000000071e+00 4.591396958066985001e-01
6.600000000000000533e+00 4.570730458180015110e-01
6.620000000000000107e+00 4.550187765523766026e-01
6.640000000000000568e+00 4.529767983091809724e-01
6.660000000000000142e+00 4.509470131841490370e-01
6.679999999999999716e+00 4.489293335837521437e-01
6.700000000000000178e+00 4.469236632889854732e-01
6.719999999999999751e+00 4.449299167651035725e-01
6.740000000000000213e+00 4.429479994277788490e-01
6.759999999999999787e+00 4.409778277542847347e-01
6.780000000000000249e+00 4.390193087459470234e-01
6.799999999999999822e+00 4.370723608468199406e-01
6.820000000000000284e+00 4.351368925962539325e-01
6.839999999999999858e+00 4.332128243613137530e-01
6.860000000000000320e+00 4.313000661732058205e-01
6.879999999999999893e+00 4.293985402796436923e-01
6.900000000000000355e+00 4.275081581588295321e-01
6.919999999999999929e+00 4.256288438981414846e-01
6.940000000000000391e+00 4.237605103792648209e-01
6.959999999999999964e+00 4.219030834895802773e-01
6.980000000000000426e+00 4.200564774719551808e-01
7.000000000000000000e+00 4.182206199754004983e-01
7.020000000000000462e+00 4.163954265629264406e-01
7.040000000000000036e+00 4.145808266080356908e-01
7.060000000000000497e+00 4.127767369539666609e-01
7.080000000000000071e+00 4.109830886627759972e-01
7.100000000000000533e+00 4.091997998191925778e-01
7.120000000000000107e+00 4.074268031390551048e-01
7.140000000000000568e+00 4.056640179108825794e-01
7.160000000000000142e+00 4.039113784706444554e-01
7.179999999999999716e+00 4.021688052740542973e-01
7.200000000000000178e+00 4.004362342446491363e-01
7.219999999999999751e+00 3.987135869696973312e-01
7.240000000000000213e+00 3.970008009287972484e-01
7.259999999999999787e+00 3.952977988061684989e-01
7.280000000000000249e+00 3.936045196069770102e-01
7.299999999999999822e+00 3.919208870786710652e-01
7.320000000000000284e+00 3.902468417224831954e-01
7.339999999999999858e+00 3.885823083163401082e-01
7.360000000000000320e+00 3.869272288289966610e-01
7.379999999999999893e+00 3.852815290369177581e-01
7.400000000000000355e+00 3.836451523487631743e-01
7.419999999999999929e+00 3.820180255085018906e-01
7.440000000000000391e+00 3.804000933379784177e-01
7.459999999999999964e+00 3.787912835183860905e-01
7.480000000000000426e+00 3.771915422589067202e-01
7.500000000000000000e+00 3.756007981485242619e-01
7.520000000000000462e+00 3.740189987587483333e-01
7.540000000000000036e+00 3.724460735576208825e-01
7.560000000000000497e+00 3.708819714547967328e-01
7.580000000000000071e+00 3.693266227694205206e-01
7.600000000000000533e+00 3.677799777258951575e-01
7.620000000000000107e+00 3.662419674671672509e-01
7.640000000000000568e+00 3.647125435097713919e-01
7.660000000000000142e+00 3.631916377938865237e-01
7.679999999999999716e+00 3.616792031063005286e-01
7.700000000000000178e+00 3.601751721584467991e-01
7.719999999999999751e+00 3.586794989862211458e-01
7.740000000000000213e+00 3.571921170470248041e-01
7.759999999999999787e+00 3.557129816054196980e-01
7.780000000000000249e+00 3.542420268400305328e-01
7.799999999999999822e+00 3.527792092243237643e-01
7.820000000000000284e+00 3.513244636340544513e-01
7.839999999999999858e+00 3.498777477325004104e-01
7.860000000000000320e+00 3.484389970689431570e-01
7.879999999999999893e+00 3.470081704780282328e-01
