# Electrodo circular de radio 6 mm y espesor 710.0 um.
# Volumen de simulacion (convencion z,y,x):
# N: 1024 x 1024 x 1024 | voxelSize:  0.02mm x 0.02mm x 0.02mm | FOV:  20.48mm x 20.48mm x 20.48mm
# 
# z [mm]		 delta[ppm]
0.000000000000000000e+00 3.115160545908583600e+00
2.000000000000000042e-02 3.106442899010805281e+00
4.000000000000000083e-02 3.097498327579662369e+00
5.999999999999999778e-02 3.088331399569774760e+00
8.000000000000000167e-02 3.078946824299804597e+00
1.000000000000000056e-01 3.069349386899141496e+00
1.199999999999999956e-01 3.059543936702692868e+00
1.400000000000000133e-01 3.049535380258043382e+00
1.600000000000000033e-01 3.039328671593916287e+00
1.799999999999999933e-01 3.028928812407802429e+00
2.000000000000000111e-01 3.018340839600004877e+00
2.200000000000000011e-01 3.007569827440431887e+00
2.399999999999999911e-01 2.996620874169347193e+00
2.600000000000000089e-01 2.985499105135836384e+00
2.800000000000000266e-01 2.974209658837660086e+00
2.999999999999999889e-01 2.962757690870179594e+00
3.200000000000000067e-01 2.951148359517253628e+00
3.400000000000000244e-01 2.939386830451180099e+00
3.599999999999999867e-01 2.927478262016543820e+00
3.800000000000000044e-01 2.915427810653111962e+00
4.000000000000000222e-01 2.903240615902969779e+00
4.199999999999999845e-01 2.890921806549891837e+00
4.400000000000000022e-01 2.878476485432326815e+00
4.600000000000000200e-01 2.865909736293836385e+00
4.799999999999999822e-01 2.853226608414687338e+00
5.000000000000000000e-01 2.840432124174916861e+00
5.200000000000000178e-01 2.827531263557955477e+00
5.400000000000000355e-01 2.814528972424086284e+00
5.600000000000000533e-01 2.801430146891553896e+00
5.799999999999999600e-01 2.788239642319916722e+00
5.999999999999999778e-01 2.774962257603971860e+00
6.199999999999999956e-01 2.761602744862041714e+00
6.400000000000000133e-01 2.748165793643021271e+00
6.600000000000000311e-01 2.734656041314273534e+00
6.800000000000000488e-01 2.721078057204407319e+00
7.000000000000000666e-01 2.707436353681215380e+00
7.199999999999999734e-01 2.693735370226255643e+00
7.399999999999999911e-01 2.679979485192197863e+00
7.600000000000000089e-01 2.666172999822261414e+00
7.800000000000000266e-01 2.652320150672757837e+00
8.000000000000000444e-01 2.638425093569872537e+00
8.200000000000000622e-01 2.624491916681932047e+00
8.399999999999999689e-01 2.610524624419466200e+00
8.599999999999999867e-01 2.596527151138873002e+00
8.800000000000000044e-01 2.582503344975516590e+00
9.000000000000000222e-01 2.568456982159368795e+00
9.200000000000000400e-01 2.554391750781924930e+00
9.400000000000000577e-01 2.540311265702297927e+00
9.599999999999999645e-01 2.526219052235834095e+00
9.799999999999999822e-01 2.512118561628435831e+00
1.000000000000000000e+00 2.498013154664139535e+00
1.020000000000000018e+00 2.483906117683891690e+00
1.040000000000000036e+00 2.469800646099158836e+00
1.060000000000000053e+00 2.455699860931118472e+00
1.080000000000000071e+00 2.441606792225418321e+00
1.100000000000000089e+00 2.427524396086871317e+00
1.120000000000000107e+00 2.413455537982414967e+00
1.140000000000000124e+00 2.399403010246410783e+00
1.159999999999999920e+00 2.385369515266055895e+00
1.179999999999999938e+00 2.371357683432034680e+00
1.199999999999999956e+00 2.357370056194188823e+00
1.219999999999999973e+00 2.343409104432646384e+00
1.239999999999999991e+00 2.329477211378006452e+00
1.260000000000000009e+00 2.315576691378155250e+00
1.280000000000000027e+00 2.301709772672096754e+00
1.300000000000000044e+00 2.287878616528232545e+00
1.320000000000000062e+00 2.274085299866911214e+00
1.340000000000000080e+00 2.260331834746311053e+00
1.360000000000000098e+00 2.246620150824633289e+00
1.380000000000000115e+00 2.232952115170554475e+00
1.400000000000000133e+00 2.219329514561374062e+00
1.419999999999999929e+00 2.205754075595545594e+00
1.439999999999999947e+00 2.192227446819783765e+00
1.459999999999999964e+00 2.178751219122095240e+00
1.479999999999999982e+00 2.165326907685756197e+00
1.500000000000000000e+00 2.151955972641972803e+00
1.520000000000000018e+00 2.138639800845910433e+00
1.540000000000000036e+00 2.125379726769041522e+00
1.560000000000000053e+00 2.112177014096924932e+00
1.580000000000000071e+00 2.099032876842021444e+00
1.600000000000000089e+00 2.085948460760661316e+00
1.620000000000000107e+00 2.072924864668091782e+00
1.640000000000000124e+00 2.059963121676054332e+00
1.660000000000000142e+00 2.047064220692607073e+00
1.679999999999999938e+00 2.034229087479852982e+00
1.699999999999999956e+00 2.021458606321931750e+00
1.719999999999999973e+00 2.008753600906107994e+00
1.739999999999999991e+00 1.996114856143038407e+00
1.760000000000000009e+00 1.983543098872762478e+00
1.780000000000000027e+00 1.971039019822178551e+00
1.800000000000000044e+00 1.958603254140739436e+00
1.820000000000000062e+00 1.946236403480736454e+00
1.840000000000000080e+00 1.933939016366028829e+00
1.860000000000000098e+00 1.921711610381440893e+00
1.880000000000000115e+00 1.909554652380780482e+00
1.900000000000000133e+00 1.897468580772255775e+00
1.919999999999999929e+00 1.885453785570662344e+00
1.939999999999999947e+00 1.873510630766346274e+00
1.959999999999999964e+00 1.861639434229079182e+00
1.979999999999999982e+00 1.849840490148572991e+00
2.000000000000000000e+00 1.838114048796278821e+00
2.020000000000000018e+00 1.826460339026009461e+00
2.040000000000000036e+00 1.814879547902224610e+00
2.060000000000000053e+00 1.803371843249717665e+00
2.080000000000000071e+00 1.791937353155736767e+00
2.100000000000000089e+00 1.780576188558131934e+00
2.120000000000000107e+00 1.769288422630758584e+00
2.140000000000000124e+00 1.758074113399793914e+00
2.160000000000000142e+00 1.746933283020687400e+00
2.180000000000000160e+00 1.735865940412724795e+00
2.200000000000000178e+00 1.724872060437652843e+00
2.220000000000000195e+00 1.713951606542796657e+00
2.240000000000000213e+00 1.703104509850373871e+00
2.260000000000000231e+00 1.692330691799770914e+00
2.280000000000000249e+00 1.681630043158163446e+00
2.300000000000000266e+00 1.671002446652760209e+00
2.319999999999999840e+00 1.660447755912286993e+00
2.339999999999999858e+00 1.649965818080189717e+00
2.359999999999999876e+00 1.639556452698024636e+00
2.379999999999999893e+00 1.629219474290732661e+00
2.399999999999999911e+00 1.618954671201915385e+00
2.419999999999999929e+00 1.608761828142483363e+00
2.439999999999999947e+00 1.598640704989094274e+00
2.459999999999999964e+00 1.588591059287548735e+00
2.479999999999999982e+00 1.578612625024662153e+00
2.500000000000000000e+00 1.568705135077905544e+00
2.520000000000000018e+00 1.558868299972143934e+00
2.540000000000000036e+00 1.549101830267066049e+00
2.560000000000000053e+00 1.539405415309260672e+00
2.580000000000000071e+00 1.529778745549041696e+00
2.600000000000000089e+00 1.520221491299368344e+00
2.620000000000000107e+00 1.510733324973742908e+00
2.640000000000000124e+00 1.501313899862518397e+00
2.660000000000000142e+00 1.491962872283562724e+00
2.680000000000000160e+00 1.482679880387485216e+00
2.700000000000000178e+00 1.473464566212765448e+00
2.720000000000000195e+00 1.464316554530495029e+00
2.740000000000000213e+00 1.455235474795712802e+00
2.760000000000000231e+00 1.446220940043126291e+00
2.780000000000000249e+00 1.437272568726384980e+00
2.800000000000000266e+00 1.428389963675362528e+00
2.819999999999999840e+00 1.419572733815110288e+00
2.839999999999999858e+00 1.410820473196072955e+00
2.859999999999999876e+00 1.402132782584465387e+00
2.879999999999999893e+00 1.393509248575931947e+00
2.899999999999999911e+00 1.384949465049084116e+00
2.919999999999999929e+00 1.376453012373872298e+00
2.939999999999999947e+00 1.368019478719974424e+00
2.959999999999999964e+00 1.359648439370320538e+00
2.979999999999999982e+00 1.351339477876063455e+00
3.000000000000000000e+00 1.343092165486344136e+00
3.020000000000000018e+00 1.334906082141559480e+00
3.040000000000000036e+00 1.326780796029669363e+00
3.060000000000000053e+00 1.318715884409449091e+00
3.080000000000000071e+00 1.310710913304308667e+00
3.100000000000000089e+00 1.302765458147176814e+00
3.120000000000000107e+00 1.294879083622024973e+00
3.140000000000000124e+00 1.287051364122067554e+00
3.160000000000000142e+00 1.279281863749738957e+00
3.180000000000000160e+00 1.271570156579880928e+00
3.200000000000000178e+00 1.263915806828202371e+00
3.220000000000000195e+00 1.256318388911110473e+00
3.240000000000000213e+00 1.248777467793246831e+00
3.260000000000000231e+00 1.241292618835589723e+00
3.280000000000000249e+00 1.233863408331966838e+00
3.300000000000000266e+00 1.226489413137070050e+00
3.320000000000000284e+00 1.219170201402332676e+00
3.339999999999999858e+00 1.211905351975508305e+00
3.359999999999999876e+00 1.204694435345642578e+00
3.379999999999999893e+00 1.197537032805836343e+00
3.399999999999999911e+00 1.190432717617549097e+00
3.419999999999999929e+00 1.183381073928172489e+00
3.439999999999999947e+00 1.176381678164234668e+00
3.459999999999999964e+00 1.169434117695441255e+00
3.479999999999999982e+00 1.162537972466798353e+00
3.500000000000000000e+00 1.155692833400767450e+00
3.520000000000000018e+00 1.148898284277731552e+00
3.540000000000000036e+00 1.142153919867913370e+00
3.560000000000000053e+00 1.135459328070041130e+00
3.580000000000000071e+00 1.128814107764679608e+00
3.600000000000000089e+00 1.122217851220363771e+00
3.620000000000000107e+00 1.115670161660029525e+00
3.640000000000000124e+00 1.109170635944271677e+00
3.660000000000000142e+00 1.102718881842578380e+00
3.680000000000000160e+00 1.096314501002811026e+00
3.700000000000000178e+00 1.089957105918936131e+00
3.720000000000000195e+00 1.083646303196252658e+00
3.740000000000000213e+00 1.077381710207351295e+00
3.760000000000000231e+00 1.071162938662009401e+00
3.780000000000000249e+00 1.064989610943137377e+00
3.800000000000000266e+00 1.058861343990688875e+00
3.820000000000000284e+00 1.052777765309350189e+00
3.839999999999999858e+00 1.046738497175269789e+00
3.859999999999999876e+00 1.040743172307284636e+00
3.879999999999999893e+00 1.034791418405633712e+00
3.899999999999999911e+00 1.028882873478554671e+00
3.919999999999999929e+00 1.023017170721620461e+00
3.939999999999999947e+00 1.017193953491559277e+00
3.959999999999999964e+00 1.011412860535235270e+00
3.979999999999999982e+00 1.005673540602551430e+00
4.000000000000000000e+00 9.999756380336050077e-01
4.020000000000000462e+00 9.943188070025703595e-01
4.040000000000000036e+00 9.887026974718787775e-01
4.060000000000000497e+00 9.831269690590371813e-01
4.080000000000000071e+00 9.775912773662011057e-01
4.099999999999999645e+00 9.720952874619011030e-01
4.120000000000000107e+00 9.666386605947184796e-01
4.139999999999999680e+00 9.612210672819084811e-01
4.160000000000000142e+00 9.558421744154518285e-01
4.179999999999999716e+00 9.505016579496032847e-01
4.200000000000000178e+00 9.451991904078692608e-01
4.219999999999999751e+00 9.399344531615713150e-01
4.240000000000000213e+00 9.347071243458719980e-01
4.259999999999999787e+00 9.295168907214482745e-01
4.280000000000000249e+00 9.243634360080094092e-01
4.299999999999999822e+00 9.192464523212082739e-01
4.320000000000000284e+00 9.141656289316648643e-01
4.339999999999999858e+00 9.091206632692837575e-01
4.360000000000000320e+00 9.041112501160962767e-01
4.379999999999999893e+00 8.991370921702012131e-01
4.400000000000000355e+00 8.941978896802896815e-01
4.419999999999999929e+00 8.892933505614666334e-01
4.440000000000000391e+00 8.844231804796516272e-01
4.459999999999999964e+00 8.795870925115500949e-01
4.480000000000000426e+00 8.747847976867302311e-01
4.500000000000000000e+00 8.700160141840296291e-01
4.520000000000000462e+00 8.652804583393900462e-01
4.540000000000000036e+00 8.605778533710708444e-01
4.560000000000000497e+00 8.559079208608975087e-01
4.580000000000000071e+00 8.512703890006579899e-01
4.600000000000000533e+00 8.466649845547512543e-01
4.620000000000000107e+00 8.420914406201717162e-01
4.639999999999999680e+00 8.375494890781458590e-01
4.660000000000000142e+00 8.330388678601481356e-01
4.679999999999999716e+00 8.285593138963932569e-01
4.700000000000000178e+00 8.241105698803693480e-01
4.719999999999999751e+00 8.196923777216753582e-01
4.740000000000000213e+00 8.153044848015795765e-01
4.759999999999999787e+00 8.109466379379898227e-01
4.780000000000000249e+00 8.066185891245655215e-01
4.799999999999999822e+00 8.023200900152367421e-01
4.820000000000000284e+00 7.980508971394500994e-01
4.839999999999999858e+00 7.938107669139197187e-01
4.860000000000000320e+00 7.895994603266044409e-01
4.879999999999999893e+00 7.854167384830306187e-01
4.900000000000000355e+00 7.812623667516257475e-01
4.919999999999999929e+00 7.771361108522361061e-01
4.940000000000000391e+00 7.730377404554595877e-01
4.959999999999999964e+00 7.689670258206329212e-01
4.980000000000000426e+00 7.649237408418280149e-01
5.000000000000000000e+00 7.609076602428725966e-01
5.020000000000000462e+00 7.569185620627147948e-01
5.040000000000000036e+00 7.529562254146631162e-01
5.060000000000000497e+00 7.490204324038505224e-01
5.080000000000000071e+00 7.451109664581935244e-01
5.100000000000000533e+00 7.412276136706860141e-01
5.120000000000000107e+00 7.373701617092340843e-01
5.139999999999999680e+00 7.335384005765361870e-01
5.160000000000000142e+00 7.297321221062466057e-01
5.179999999999999716e+00 7.259511201332089492e-01
5.200000000000000178e+00 7.221951905830579221e-01
5.219999999999999751e+00 7.184641310455978092e-01
5.240000000000000213e+00 7.147577414652505068e-01
5.259999999999999787e+00 7.110758231103737614e-01
5.280000000000000249e+00 7.074181798716308034e-01
5.299999999999999822e+00 7.037846166200675269e-01
5.320000000000000284e+00 7.001749411207708329e-01
5.339999999999999858e+00 6.965889617725384841e-01
5.360000000000000320e+00 6.930264901438581981e-01
5.379999999999999893e+00 6.894873380869999124e-01
5.400000000000000355e+00 6.859713209036862880e-01
5.419999999999999929e+00 6.824782538264251297e-01
5.440000000000000391e+00 6.790079558209046739e-01
5.459999999999999964e+00 6.755602454274040047e-01
5.480000000000000426e+00 6.721349452072532538e-01
5.500000000000000000e+00 6.687318769371690674e-01
5.520000000000000462e+00 6.653508667067834503e-01
5.540000000000000036e+00 6.619917394587493398e-01
5.560000000000000497e+00 6.586543247446847715e-01
5.580000000000000071e+00 6.553384506038755219e-01
5.600000000000000533e+00 6.520439499846512055e-01
5.620000000000000107e+00 6.487706539545148310e-01
5.639999999999999680e+00 6.455183987943066137e-01
5.660000000000000142e+00 6.422870185325764147e-01
5.679999999999999716e+00 6.390763527195566507e-01
5.700000000000000178e+00 6.358862382785943623e-01
5.719999999999999751e+00 6.327165179673054363e-01
5.740000000000000213e+00 6.295670315388595117e-01
5.759999999999999787e+00 6.264376248973566597e-01
5.780000000000000249e+00 6.233281405617548954e-01
5.799999999999999822e+00 6.202384275228675081e-01
5.820000000000000284e+00 6.171683310027005209e-01
5.839999999999999858e+00 6.141177030201342424e-01
5.860000000000000320e+00 6.110863914384231377e-01
5.879999999999999893e+00 6.080742512470088679e-01
5.900000000000000355e+00 6.050811328898940689e-01
5.919999999999999929e+00 6.021068942707028526e-01
5.940000000000000391e+00 5.991513883546311092e-01
5.959999999999999964e+00 5.962144759042415920e-01
5.980000000000000426e+00 5.932960123476542780e-01
6.000000000000000000e+00 5.903958612522560712e-01
6.020000000000000462e+00 5.875138804517623381e-01
6.040000000000000036e+00 5.846499362653870824e-01
6.060000000000000497e+00 5.818038888763868988e-01
6.080000000000000071e+00 5.789756073039274975e-01
6.100000000000000533e+00 5.761649540256708057e-01
6.120000000000000107e+00 5.733718007099626313e-01
6.140000000000000568e+00 5.705960120749942188e-01
6.160000000000000142e+00 5.678374623886183192e-01
6.179999999999999716e+00 5.650960185565735427e-01
6.200000000000000178e+00 5.623715573976385551e-01
6.219999999999999751e+00 5.596639479533476180e-01
6.240000000000000213e+00 5.569730695458962044e-01
6.259999999999999787e+00 5.542987933017399227e-01
6.280000000000000249e+00 5.516410010000458719e-01
6.299999999999999822e+00 5.489995658025168535e-01
6.320000000000000284e+00 5.463743718998981258e-01
6.339999999999999858e+00 5.437652944403078559e-01
6.360000000000000320e+00 5.411722199817099455e-01
6.379999999999999893e+00 5.385950256109817147e-01
6.400000000000000355e+00 5.360336002099713726e-01
6.419999999999999929e+00 5.334878227574648690e-01
6.440000000000000391e+00 5.309575844168615832e-01
6.459999999999999964e+00 5.284427660131543192e-01
6.480000000000000426e+00 5.259432609499593569e-01
6.500000000000000000e+00 5.234589518535390784e-01
6.520000000000000462e+00 5.209897343273629522e-01
6.540000000000000036e+00 5.185354927551409920e-01
6.560000000000000497e+00 5.160961249007955942e-01
6.580000000000000071e+00 5.136715168623942063e-01
6.600000000000000533e+00 5.112615685258570242e-01
6.620000000000000107e+00 5.088661676616016427e-01
6.640000000000000568e+00 5.064852162400153013e-01
6.660000000000000142e+00 5.041186036625455724e-01
6.679999999999999716e+00 5.017662339474298072e-01
6.700000000000000178e+00 4.994279980868809310e-01
6.719999999999999751e+00 4.971038021112622052e-01
6.740000000000000213e+00 4.947935385639398720e-01
6.759999999999999787e+00 4.924971154525558670e-01
6.780000000000000249e+00 4.902144268330295707e-01
6.799999999999999822e+00 4.879453826563036611e-01
6.820000000000000284e+00 4.856898784528616009e-01
6.839999999999999858e+00 4.834478260838151464e-01
6.860000000000000320e+00 4.812191225172050557e-01
6.879999999999999893e+00 4.790036814920024533e-01
6.900000000000000355e+00 4.768014013773853588e-01
6.919999999999999929e+00 4.746121977586920115e-01
6.940000000000000391e+00 4.724359703707535774e-01
6.959999999999999964e+00 4.702726366145783543e-01
6.980000000000000426e+00 4.681220975557119912e-01
7.000000000000000000e+00 4.659842723809251575e-01
7.020000000000000462e+00 4.638590634524452083e-01
7.040000000000000036e+00 4.617463917136582774e-01
7.060000000000000497e+00 4.596461607899516300e-01
7.080000000000000071e+00 4.575582933529288576e-01
7.100000000000000533e+00 4.554826942584915273e-01
7.120000000000000107e+00 4.534192878788037007e-01
7.140000000000000568e+00 4.513679802681010433e-01
7.160000000000000142e+00 4.493286974721706351e-01
7.179999999999999716e+00 4.473013467122536890e-01
7.200000000000000178e+00 4.452858556815247337e-01
7.219999999999999751e+00 4.432821327373301923e-01
7.240000000000000213e+00 4.412901071946958576e-01
7.259999999999999787e+00 4.393096885169929244e-01
7.280000000000000249e+00 4.373408076162317859e-01
7.299999999999999822e+00 4.353833750321187135e-01
7.320000000000000284e+00 4.334373232494500572e-01
7.339999999999999858e+00 4.315025638553765530e-01
7.360000000000000320e+00 4.295790308839306237e-01
7.379999999999999893e+00 4.276666369411667445e-01
7.400000000000000355e+00 4.257653175874407947e-01
7.419999999999999929e+00 4.238749864199367612e-01
7.440000000000000391e+00 4.219955805030441987e-01
7.459999999999999964e+00 4.201270143976261195e-01
7.480000000000000426e+00 4.182692266504270395e-01
7.500000000000000000e+00 4.164221327592784183e-01
7.520000000000000462e+00 4.145856727321922675e-01
7.540000000000000036e+00 4.127597629775545118e-01
7.560000000000000497e+00 4.109443449441521623e-01
7.580000000000000071e+00 4.091393359252071260e-01
7.600000000000000533e+00 4.073446787903548527e-01
7.620000000000000107e+00 4.055602916922116941e-01
7.640000000000000568e+00 4.037861189019039676e-01
7.660000000000000142e+00 4.020220794066780012e-01
7.679999999999999716e+00 4.002681188603374185e-01
7.700000000000000178e+00 3.985241570602235384e-01
7.719999999999999751e+00 3.967901410245491256e-01
7.740000000000000213e+00 3.950659913368804732e-01
7.759999999999999787e+00 3.933516563620979012e-01
7.780000000000000249e+00 3.916470574463205012e-01
7.799999999999999822e+00 3.899521442838693730e-01
7.820000000000000284e+00 3.882668389603908254e-01
7.839999999999999858e+00 3.865910924829294992e-01
7.860000000000000320e+00 3.849248276537935998e-01
7.879999999999999893e+00 3.832679967765365570e-01
