# Electrodo circular de radio 6 mm y espesor 710.0 um.
# Volumen de simulacion (convencion z,y,x):
# N: 1024 x 1024 x 1024 | voxelSize:  0.02mm x 0.02mm x 0.02mm | FOV:  20.48mm x 20.48mm x 20.48mm
# 
# z [mm]		 delta[ppm]
0.000000000000000000e+00 5.098341386779487117e+00
2.000000000000000042e-02 5.027397868115013324e+00
4.000000000000000083e-02 4.955851569668508816e+00
5.999999999999999778e-02 4.883835365821314944e+00
8.000000000000000167e-02 4.811480776546746441e+00
1.000000000000000056e-01 4.738916147575238824e+00
1.199999999999999956e-01 4.666266090043198922e+00
1.400000000000000133e-01 4.593650760660132448e+00
1.600000000000000033e-01 4.521185374551773606e+00
1.799999999999999933e-01 4.448979684551730429e+00
2.000000000000000111e-01 4.377137597756608045e+00
2.200000000000000011e-01 4.305756828353021426e+00
2.399999999999999911e-01 4.234928650692920904e+00
2.600000000000000089e-01 4.164737717015576379e+00
2.800000000000000266e-01 4.095261951407078271e+00
2.999999999999999889e-01 4.026572518625848751e+00
3.200000000000000067e-01 3.958733847892445201e+00
3.400000000000000244e-01 3.891803731478625572e+00
3.599999999999999867e-01 3.825833457582460628e+00
3.800000000000000044e-01 3.760868012295663920e+00
4.000000000000000222e-01 3.696946295869921073e+00
4.199999999999999845e-01 3.634101399808952859e+00
4.400000000000000022e-01 3.572360879739388650e+00
4.600000000000000200e-01 3.511747080397068288e+00
4.799999999999999822e-01 3.452277440043189483e+00
5.000000000000000000e-01 3.393964839234079989e+00
5.200000000000000178e-01 3.336817915318571970e+00
5.400000000000000355e-01 3.280841415208958445e+00
5.600000000000000533e-01 3.226036502938795625e+00
5.799999999999999600e-01 3.172401101399647594e+00
5.999999999999999778e-01 3.119930180567944245e+00
6.199999999999999956e-01 3.068616077738420600e+00
6.400000000000000133e-01 3.018448758263843956e+00
6.600000000000000311e-01 2.969416107827650642e+00
6.800000000000000488e-01 2.921504161158567925e+00
7.000000000000000666e-01 2.874697363153968066e+00
7.199999999999999734e-01 2.828978763860325873e+00
7.399999999999999911e-01 2.784330247749110754e+00
7.600000000000000089e-01 2.740732695356842274e+00
7.800000000000000266e-01 2.698166181780015549e+00
8.000000000000000444e-01 2.656610106780451730e+00
8.200000000000000622e-01 2.616043364714182751e+00
8.399999999999999689e-01 2.576444445789535465e+00
8.599999999999999867e-01 2.537791580300617689e+00
8.800000000000000044e-01 2.500062814163033664e+00
9.000000000000000222e-01 2.463236130610094055e+00
9.200000000000000400e-01 2.427289503275370741e+00
9.400000000000000577e-01 2.392200998535955581e+00
9.599999999999999645e-01 2.357948809328192397e+00
9.799999999999999822e-01 2.324511341177444734e+00
1.000000000000000000e+00 2.291867229731049171e+00
1.020000000000000018e+00 2.259995413265662556e+00
1.040000000000000036e+00 2.228875136631821352e+00
1.060000000000000053e+00 2.198486012729762518e+00
1.080000000000000071e+00 2.168808015249902521e+00
1.100000000000000089e+00 2.139821531290230450e+00
1.120000000000000107e+00 2.111507344952612719e+00
1.140000000000000124e+00 2.083846682963643726e+00
1.159999999999999920e+00 2.056821190886939821e+00
1.179999999999999938e+00 2.030412973318110659e+00
1.199999999999999956e+00 2.004604564189394811e+00
1.219999999999999973e+00 1.979378962846420897e+00
1.239999999999999991e+00 1.954719599676677300e+00
1.260000000000000009e+00 1.930610369143657135e+00
1.280000000000000027e+00 1.907035591749449255e+00
1.300000000000000044e+00 1.883980044901347073e+00
1.320000000000000062e+00 1.861428922036169498e+00
1.340000000000000080e+00 1.839367862023394196e+00
1.360000000000000098e+00 1.817782906117767938e+00
1.380000000000000115e+00 1.796660526459477936e+00
1.400000000000000133e+00 1.775987581392932446e+00
1.419999999999999929e+00 1.755751343504861284e+00
1.439999999999999947e+00 1.735939453735013238e+00
1.459999999999999964e+00 1.716539949294579426e+00
1.479999999999999982e+00 1.697541216907798134e+00
1.500000000000000000e+00 1.678932020872481612e+00
1.520000000000000018e+00 1.660701455695824835e+00
1.540000000000000036e+00 1.642838974493514126e+00
1.560000000000000053e+00 1.625334341226557067e+00
1.580000000000000071e+00 1.608177659582755714e+00
1.600000000000000089e+00 1.591359324971541422e+00
1.620000000000000107e+00 1.574870053989520846e+00
1.640000000000000124e+00 1.558700836294788505e+00
1.660000000000000142e+00 1.542842964724769006e+00
1.679999999999999938e+00 1.527287987139311909e+00
1.699999999999999956e+00 1.512027737232739977e+00
1.719999999999999973e+00 1.497054286413589397e+00
1.739999999999999991e+00 1.482359975332097290e+00
1.760000000000000009e+00 1.467937365844102171e+00
1.780000000000000027e+00 1.453779273259278693e+00
1.800000000000000044e+00 1.439878718424433934e+00
1.820000000000000062e+00 1.426228960685547387e+00
1.840000000000000080e+00 1.412823450113045665e+00
1.860000000000000098e+00 1.399655861161477999e+00
1.880000000000000115e+00 1.386720045052949324e+00
1.900000000000000133e+00 1.374010064111396145e+00
1.919999999999999929e+00 1.361520144312601266e+00
1.939999999999999947e+00 1.349244710265095737e+00
1.959999999999999964e+00 1.337178337932433569e+00
1.979999999999999982e+00 1.325315790229218083e+00
2.000000000000000000e+00 1.313651969916681983e+00
2.020000000000000018e+00 1.302181955780026268e+00
2.040000000000000036e+00 1.290900955697814156e+00
2.060000000000000053e+00 1.279804343365353425e+00
2.080000000000000071e+00 1.268887611535660653e+00
2.100000000000000089e+00 1.258146409252908438e+00
2.120000000000000107e+00 1.247576495263492236e+00
2.140000000000000124e+00 1.237173775723300340e+00
2.160000000000000142e+00 1.226934257775797343e+00
2.180000000000000160e+00 1.216854087697093689e+00
2.200000000000000178e+00 1.206929504639420170e+00
2.220000000000000195e+00 1.197156879178436828e+00
2.240000000000000213e+00 1.187532667219493465e+00
2.260000000000000231e+00 1.178053448912325107e+00
2.280000000000000249e+00 1.168715882719297827e+00
2.300000000000000266e+00 1.159516744663461107e+00
2.319999999999999840e+00 1.150452882557357226e+00
2.339999999999999858e+00 1.141521255551339653e+00
2.359999999999999876e+00 1.132718888523477352e+00
2.379999999999999893e+00 1.124042911896020236e+00
2.399999999999999911e+00 1.115490516186437686e+00
2.419999999999999929e+00 1.107058992060991232e+00
2.439999999999999947e+00 1.098745685048879928e+00
2.459999999999999964e+00 1.090548035802878291e+00
2.479999999999999982e+00 1.082463534978155728e+00
2.500000000000000000e+00 1.074489763670992915e+00
2.520000000000000018e+00 1.066624348465695649e+00
2.540000000000000036e+00 1.058865002023417379e+00
2.560000000000000053e+00 1.051209478300143330e+00
2.580000000000000071e+00 1.043655613258655190e+00
2.600000000000000089e+00 1.036201280262313729e+00
2.620000000000000107e+00 1.028844430884163996e+00
2.640000000000000124e+00 1.021583050480763477e+00
2.660000000000000142e+00 1.014415199073335661e+00
2.680000000000000160e+00 1.007338967107559213e+00
2.700000000000000178e+00 1.000352516382557955e+00
2.720000000000000195e+00 9.934540360019983307e-01
2.740000000000000213e+00 9.866417833275770155e-01
2.760000000000000231e+00 9.799140401282957491e-01
2.780000000000000249e+00 9.732691535359236923e-01
2.800000000000000266e+00 9.667054923986936332e-01
2.819999999999999840e+00 9.602214882169840537e-01
2.839999999999999858e+00 9.538155917091148961e-01
2.859999999999999876e+00 9.474863137062307095e-01
2.879999999999999893e+00 9.412321819371771703e-01
2.899999999999999911e+00 9.350517818622774424e-01
2.919999999999999929e+00 9.289437136855978050e-01
2.939999999999999947e+00 9.229066331079600616e-01
2.959999999999999964e+00 9.169392085741473464e-01
2.979999999999999982e+00 9.110401619261773165e-01
3.000000000000000000e+00 9.052082258942015791e-01
3.020000000000000018e+00 8.994421846316599245e-01
3.040000000000000036e+00 8.937408314578416668e-01
3.060000000000000053e+00 8.881030092571099432e-01
3.080000000000000071e+00 8.825275684822532218e-01
3.100000000000000089e+00 8.770134074005164759e-01
3.120000000000000107e+00 8.715594303660064712e-01
3.140000000000000124e+00 8.661645878958216249e-01
3.160000000000000142e+00 8.608278352208360573e-01
3.180000000000000160e+00 8.555481721757333125e-01
3.200000000000000178e+00 8.503246020365913260e-01
3.220000000000000195e+00 8.451561712091180123e-01
3.240000000000000213e+00 8.400419283624850353e-01
3.260000000000000231e+00 8.349809639005046913e-01
3.280000000000000249e+00 8.299723694002518748e-01
3.300000000000000266e+00 8.250152768513808743e-01
3.320000000000000284e+00 8.201088184090040700e-01
3.339999999999999858e+00 8.152521653868014528e-01
3.359999999999999876e+00 8.104444883326756832e-01
3.379999999999999893e+00 8.056849957616936120e-01
3.399999999999999911e+00 8.009728945639783548e-01
3.419999999999999929e+00 7.963074284639312106e-01
3.439999999999999947e+00 7.916878387688077723e-01
3.459999999999999964e+00 7.871134025410774226e-01
3.479999999999999982e+00 7.825833936970153504e-01
3.500000000000000000e+00 7.780971208794272842e-01
3.520000000000000018e+00 7.736538889145823106e-01
3.540000000000000036e+00 7.692530363728864451e-01
3.560000000000000053e+00 7.648938973933496754e-01
3.580000000000000071e+00 7.605758389201408010e-01
3.600000000000000089e+00 7.562982229027449543e-01
3.620000000000000107e+00 7.520604431966865233e-01
3.640000000000000124e+00 7.478618881483622971e-01
3.660000000000000142e+00 7.437019771485607889e-01
3.680000000000000160e+00 7.395801236099019960e-01
3.700000000000000178e+00 7.354957711620748739e-01
3.720000000000000195e+00 7.314483570306775650e-01
3.740000000000000213e+00 7.274373478634320600e-01
3.760000000000000231e+00 7.234622035180883204e-01
3.780000000000000249e+00 7.195224125091874701e-01
3.800000000000000266e+00 7.156174562135546591e-01
3.820000000000000284e+00 7.117468439274626801e-01
3.839999999999999858e+00 7.079100774971395227e-01
3.859999999999999876e+00 7.041066859764760766e-01
3.879999999999999893e+00 7.003361906907860090e-01
3.899999999999999911e+00 6.965981394855078612e-01
3.919999999999999929e+00 6.928920722303327784e-01
3.939999999999999947e+00 6.892175546496212002e-01
3.959999999999999964e+00 6.855741442748498615e-01
3.979999999999999982e+00 6.819614238477116341e-01
4.000000000000000000e+00 6.783789677277306529e-01
4.020000000000000462e+00 6.748263748592886468e-01
4.040000000000000036e+00 6.713032356420328695e-01
4.060000000000000497e+00 6.678091644533578064e-01
4.080000000000000071e+00 6.643437669881160357e-01
4.099999999999999645e+00 6.609066723283187894e-01
4.120000000000000107e+00 6.574975007594751064e-01
4.139999999999999680e+00 6.541158953795042086e-01
4.160000000000000142e+00 6.507614903979315191e-01
4.179999999999999716e+00 6.474339422762536156e-01
4.200000000000000178e+00 6.441328985169811894e-01
4.219999999999999751e+00 6.408580283279686762e-01
4.240000000000000213e+00 6.376089919071710188e-01
4.259999999999999787e+00 6.343854706236458085e-01
4.280000000000000249e+00 6.311871368047358155e-01
4.299999999999999822e+00 6.280136834266779600e-01
4.320000000000000284e+00 6.248647944097565077e-01
4.339999999999999858e+00 6.217401738116870025e-01
4.360000000000000320e+00 6.186395166371283505e-01
4.379999999999999893e+00 6.155625375272257838e-01
4.400000000000000355e+00 6.125089420886863367e-01
4.419999999999999929e+00 6.094784550730810713e-01
4.440000000000000391e+00 6.064707922315603073e-01
4.459999999999999964e+00 6.034856879777076299e-01
4.480000000000000426e+00 6.005228677728143838e-01
4.500000000000000000e+00 5.975820752662568403e-01
4.520000000000000462e+00 5.946630452171054459e-01
4.540000000000000036e+00 5.917655301062400008e-01
4.560000000000000497e+00 5.888892735988637828e-01
4.580000000000000071e+00 5.860340366227393405e-01
4.600000000000000533e+00 5.831995713770889989e-01
4.620000000000000107e+00 5.803856468715190564e-01
4.639999999999999680e+00 5.775920234855941304e-01
4.660000000000000142e+00 5.748184779631978492e-01
4.679999999999999716e+00 5.720647785279603381e-01
4.700000000000000178e+00 5.693307093280006725e-01
4.719999999999999751e+00 5.666160461111816593e-01
4.740000000000000213e+00 5.639205801153341913e-01
4.759999999999999787e+00 5.612440943082546152e-01
4.780000000000000249e+00 5.585863867186759979e-01
4.799999999999999822e+00 5.559472472447035685e-01
4.820000000000000284e+00 5.533264804209800936e-01
4.839999999999999858e+00 5.507238828001802533e-01
4.860000000000000320e+00 5.481392651519727544e-01
4.879999999999999893e+00 5.455724304209915720e-01
4.900000000000000355e+00 5.430231953533440903e-01
4.919999999999999929e+00 5.404913690354407052e-01
4.940000000000000391e+00 5.379767739439489382e-01
4.959999999999999964e+00 5.354792250686323252e-01
4.980000000000000426e+00 5.329985503817870063e-01
5.000000000000000000e+00 5.305345705492392483e-01
5.020000000000000462e+00 5.280871188154613316e-01
5.040000000000000036e+00 5.256560213055975206e-01
5.060000000000000497e+00 5.232411163225969553e-01
5.080000000000000071e+00 5.208422352441791636e-01
5.100000000000000533e+00 5.184592212284362400e-01
5.120000000000000107e+00 5.160919107083907775e-01
5.139999999999999680e+00 5.137401515026505106e-01
5.160000000000000142e+00 5.114037849112528233e-01
5.179999999999999716e+00 5.090826632280851527e-01
5.200000000000000178e+00 5.067766324404309186e-01
5.219999999999999751e+00 5.044855491399869996e-01
5.240000000000000213e+00 5.022092638296045131e-01
5.259999999999999787e+00 4.999476372298417015e-01
5.280000000000000249e+00 4.977005241951057979e-01
5.299999999999999822e+00 4.954677894128016735e-01
5.320000000000000284e+00 4.932492919321683766e-01
5.339999999999999858e+00 4.910449002532019658e-01
5.360000000000000320e+00 4.888544774701699125e-01
5.379999999999999893e+00 4.866778957475722533e-01
5.400000000000000355e+00 4.845150220814861131e-01
5.419999999999999929e+00 4.823657321599061909e-01
5.440000000000000391e+00 4.802298967437387822e-01
5.459999999999999964e+00 4.781073949089790220e-01
5.480000000000000426e+00 4.759981010503243626e-01
5.500000000000000000e+00 4.739018975027414204e-01
5.520000000000000462e+00 4.718186621693279958e-01
5.540000000000000036e+00 4.697482805199033606e-01
5.560000000000000497e+00 4.676906338459531631e-01
5.580000000000000071e+00 4.656456106339526002e-01
5.600000000000000533e+00 4.636130954488753009e-01
5.620000000000000107e+00 4.615929796800292695e-01
5.639999999999999680e+00 4.595851510558442987e-01
5.660000000000000142e+00 4.575895037600819504e-01
5.679999999999999716e+00 4.556059285792268820e-01
5.700000000000000178e+00 4.536343223870023533e-01
5.719999999999999751e+00 4.516745789269667744e-01
5.740000000000000213e+00 4.497265976633216256e-01
5.759999999999999787e+00 4.477902751999179864e-01
5.780000000000000249e+00 4.458655134954088717e-01
5.799999999999999822e+00 4.439522119211682383e-01
5.820000000000000284e+00 4.420502748389000813e-01
5.839999999999999858e+00 4.401596042985443380e-01
5.860000000000000320e+00 4.382801069765123181e-01
5.879999999999999893e+00 4.364116875160064524e-01
5.900000000000000355e+00 4.345542548240814429e-01
5.919999999999999929e+00 4.327077160553670088e-01
5.940000000000000391e+00 4.308719822662055998e-01
5.959999999999999964e+00 4.290469630441375859e-01
5.980000000000000426e+00 4.272325715174033478e-01
6.000000000000000000e+00 4.254287196310982400e-01
6.020000000000000462e+00 4.236353225103651754e-01
6.040000000000000036e+00 4.218522943855199658e-01
6.060000000000000497e+00 4.200795523072961557e-01
6.080000000000000071e+00 4.183170127217806789e-01
6.100000000000000533e+00 4.165645945360900715e-01
6.120000000000000107e+00 4.148222163453852418e-01
6.140000000000000568e+00 4.130897988473977711e-01
6.160000000000000142e+00 4.113672627222966782e-01
6.179999999999999716e+00 4.096545303944974514e-01
6.200000000000000178e+00 4.079515245676320623e-01
6.219999999999999751e+00 4.062581693320799769e-01
6.240000000000000213e+00 4.045743893557906534e-01
6.259999999999999787e+00 4.029001103359941549e-01
6.280000000000000249e+00 4.012352588481125082e-01
6.299999999999999822e+00 3.995797621401229183e-01
6.320000000000000284e+00 3.979335486402753030e-01
6.339999999999999858e+00 3.962965470925728928e-01
6.360000000000000320e+00 3.946686877255493053e-01
6.379999999999999893e+00 3.930499007273495216e-01
6.400000000000000355e+00 3.914401180762648869e-01
6.419999999999999929e+00 3.898392713538761378e-01
6.440000000000000391e+00 3.882472942396273941e-01
6.459999999999999964e+00 3.866641196605099529e-01
6.480000000000000426e+00 3.850896829503682173e-01
6.500000000000000000e+00 3.835239183345697800e-01
6.520000000000000462e+00 3.819667627563681500e-01
6.540000000000000036e+00 3.804181516950094766e-01
6.560000000000000497e+00 3.788780236598625617e-01
6.580000000000000071e+00 3.773463153403793791e-01
6.600000000000000533e+00 3.758229667703736343e-01
6.620000000000000107e+00 3.743079158082396329e-01
6.640000000000000568e+00 3.728011039721189079e-01
6.660000000000000142e+00 3.713024702487497386e-01
6.679999999999999716e+00 3.698119576019754939e-01
6.700000000000000178e+00 3.683295061085796185e-01
6.719999999999999751e+00 3.668550601409109047e-01
6.740000000000000213e+00 3.653885608280276198e-01
6.759999999999999787e+00 3.639299539149565832e-01
6.780000000000000249e+00 3.624791815474445178e-01
6.799999999999999822e+00 3.610361908086939242e-01
6.820000000000000284e+00 3.596009248259481872e-01
6.839999999999999858e+00 3.581733319873466881e-01
6.860000000000000320e+00 3.567533563685350573e-01
6.879999999999999893e+00 3.553409476305535164e-01
6.900000000000000355e+00 3.539360507646435727e-01
6.919999999999999929e+00 3.525386166738824767e-01
6.940000000000000391e+00 3.511485912342995896e-01
6.959999999999999964e+00 3.497659265612614865e-01
6.980000000000000426e+00 3.483905693849501106e-01
7.000000000000000000e+00 3.470224730043541816e-01
7.020000000000000462e+00 3.456615849751065173e-01
7.040000000000000036e+00 3.443078597521792017e-01
7.060000000000000497e+00 3.429612456880192783e-01
7.080000000000000071e+00 3.416216983669369545e-01
7.100000000000000533e+00 3.402891669114276318e-01
7.120000000000000107e+00 3.389636080094540760e-01
7.140000000000000568e+00 3.376449715267548779e-01
7.160000000000000142e+00 3.363332152301772293e-01
7.179999999999999716e+00 3.350282897037168972e-01
7.200000000000000178e+00 3.337301537692198838e-01
7.219999999999999751e+00 3.324387587038196146e-01
7.240000000000000213e+00 3.311540643613322676e-01
7.259999999999999787e+00 3.298760226886782165e-01
7.280000000000000249e+00 3.286045945494285858e-01
7.299999999999999822e+00 3.273397325367194410e-01
7.320000000000000284e+00 3.260813985024519912e-01
7.339999999999999858e+00 3.248295456641384082e-01
7.360000000000000320e+00 3.235841368413490127e-01
7.379999999999999893e+00 3.223451258538208575e-01
7.400000000000000355e+00 3.211124764688655375e-01
7.419999999999999929e+00 3.198861430879844092e-01
7.440000000000000391e+00 3.186660904070071076e-01
7.459999999999999964e+00 3.174522733883608505e-01
7.480000000000000426e+00 3.162446576378520335e-01
7.500000000000000000e+00 3.150431986596505807e-01
7.520000000000000462e+00 3.138478629516508467e-01
7.540000000000000036e+00 3.126586065401350534e-01
7.560000000000000497e+00 3.114753967978385329e-01
7.580000000000000071e+00 3.102981902551377180e-01
7.600000000000000533e+00 3.091269551429664530e-01
7.620000000000000107e+00 3.079616484772709217e-01
7.640000000000000568e+00 3.068022393311390372e-01
7.660000000000000142e+00 3.056486851891573320e-01
7.679999999999999716e+00 3.045009559510871155e-01
7.700000000000000178e+00 3.033590095526371710e-01
7.719999999999999751e+00 3.022228167053192527e-01
7.740000000000000213e+00 3.010923357800324718e-01
7.759999999999999787e+00 2.999675382856470396e-01
7.780000000000000249e+00 2.988483830116662188e-01
7.799999999999999822e+00 2.977348422504395020e-01
7.820000000000000284e+00 2.966268751950620897e-01
7.839999999999999858e+00 2.955244549079834582e-01
7.860000000000000320e+00 2.944275409701569424e-01
7.879999999999999893e+00 2.933361072012382609e-01
