# Electrodo circular de radio 6 mm y espesor 710.0 um.
# Volumen de simulacion (convencion z,y,x):
# N: 1024 x 1024 x 1024 | voxelSize:  0.02mm x 0.02mm x 0.02mm | FOV:  20.48mm x 20.48mm x 20.48mm
# 
# z [mm]		 delta[ppm]
0.000000000000000000e+00 4.500632194334289515e+00
2.000000000000000042e-02 4.459064345386038575e+00
4.000000000000000083e-02 4.416901217994523066e+00
5.999999999999999778e-02 4.374199144319522503e+00
8.000000000000000167e-02 4.331014268420332769e+00
1.000000000000000056e-01 4.287402111060519161e+00
1.199999999999999956e-01 4.243417430305234994e+00
1.400000000000000133e-01 4.199114045013478069e+00
1.600000000000000033e-01 4.154544696591971231e+00
1.799999999999999933e-01 4.109760912392572685e+00
2.000000000000000111e-01 4.064812875235817025e+00
2.200000000000000011e-01 4.019749315042506765e+00
2.399999999999999911e-01 3.974617395777197526e+00
2.600000000000000089e-01 3.929462633584336562e+00
2.800000000000000266e-01 3.884328804584642914e+00
2.999999999999999889e-01 3.839257889370314647e+00
3.200000000000000067e-01 3.794290003028973235e+00
3.400000000000000244e-01 3.749463365335021781e+00
3.599999999999999867e-01 3.704814252879489178e+00
3.800000000000000044e-01 3.660376993579237848e+00
4.000000000000000222e-01 3.616183939684729065e+00
4.199999999999999845e-01 3.572265484529855151e+00
4.400000000000000022e-01 3.528650054385065626e+00
4.600000000000000200e-01 3.485364144829239397e+00
4.799999999999999822e-01 3.442432328841005695e+00
5.000000000000000000e-01 3.399877309822657789e+00
5.200000000000000178e-01 3.357719943022450693e+00
5.400000000000000355e-01 3.315979302083649660e+00
5.600000000000000533e-01 3.274672710769199302e+00
5.799999999999999600e-01 3.233815819929301671e+00
5.999999999999999778e-01 3.193422646584154201e+00
6.199999999999999956e-01 3.153505658366237085e+00
6.400000000000000133e-01 3.114075817207567543e+00
6.600000000000000311e-01 3.075142668583255467e+00
6.800000000000000488e-01 3.036714387358073974e+00
7.000000000000000666e-01 2.998797869495578805e+00
7.199999999999999734e-01 2.961398777959158402e+00
7.399999999999999911e-01 2.924521634924165170e+00
7.600000000000000089e-01 2.888169866010768416e+00
7.800000000000000266e-01 2.852345891414627577e+00
8.000000000000000444e-01 2.817051167108766130e+00
8.200000000000000622e-01 2.782286273671281229e+00
8.399999999999999689e-01 2.748050953446551592e+00
8.599999999999999867e-01 2.714344196179648172e+00
8.800000000000000044e-01 2.681164271430014789e+00
9.000000000000000222e-01 2.648508810413844561e+00
9.200000000000000400e-01 2.616374833237299136e+00
9.400000000000000577e-01 2.584758826594578007e+00
9.599999999999999645e-01 2.553656765604868095e+00
9.799999999999999822e-01 2.523064187216016219e+00
1.000000000000000000e+00 2.492976206613862100e+00
1.020000000000000018e+00 2.463387586340419766e+00
1.040000000000000036e+00 2.434292747378096422e+00
1.060000000000000053e+00 2.405685834112164745e+00
1.080000000000000071e+00 2.377560720299392472e+00
1.100000000000000089e+00 2.349911070091352805e+00
1.120000000000000107e+00 2.322730339164679414e+00
1.140000000000000124e+00 2.296011832080433912e+00
1.159999999999999920e+00 2.269748698903012674e+00
1.179999999999999938e+00 2.243933989206032820e+00
1.199999999999999956e+00 2.218560644528795756e+00
1.219999999999999973e+00 2.193621549356185696e+00
1.239999999999999991e+00 2.169109519774086170e+00
1.260000000000000009e+00 2.145017351753473633e+00
1.280000000000000027e+00 2.121337806360284794e+00
1.300000000000000044e+00 2.098063655666293048e+00
1.320000000000000062e+00 2.075187664859996506e+00
1.340000000000000080e+00 2.052702636091743305e+00
1.360000000000000098e+00 2.030601387811796332e+00
1.380000000000000115e+00 2.008876796837293810e+00
1.400000000000000133e+00 1.987521775224459386e+00
1.419999999999999929e+00 1.966529310822022092e+00
1.439999999999999947e+00 1.945892441958491981e+00
1.459999999999999964e+00 1.925604296722381870e+00
1.479999999999999982e+00 1.905658065723074612e+00
1.500000000000000000e+00 1.886047040313496126e+00
1.520000000000000018e+00 1.866764583656659982e+00
1.540000000000000036e+00 1.847804168082352261e+00
1.560000000000000053e+00 1.829159344669767373e+00
1.580000000000000071e+00 1.810823779906695963e+00
1.600000000000000089e+00 1.792791223974531389e+00
1.620000000000000107e+00 1.775055546856897148e+00
1.640000000000000124e+00 1.757610705494243142e+00
1.660000000000000142e+00 1.740450779468889930e+00
1.679999999999999938e+00 1.723569937175769340e+00
1.699999999999999956e+00 1.706962471192674524e+00
1.719999999999999973e+00 1.690622763597982026e+00
1.739999999999999991e+00 1.674545321118440899e+00
1.760000000000000009e+00 1.658724739707693407e+00
1.780000000000000027e+00 1.643155739549257532e+00
1.800000000000000044e+00 1.627833128997201895e+00
1.820000000000000062e+00 1.612751839498894224e+00
1.840000000000000080e+00 1.597906888985568097e+00
1.860000000000000098e+00 1.583293416767887374e+00
1.880000000000000115e+00 1.568906646454597098e+00
1.900000000000000133e+00 1.554741920863835336e+00
1.919999999999999929e+00 1.540794664537321834e+00
1.939999999999999947e+00 1.527060418701548850e+00
1.959999999999999964e+00 1.513534803437885490e+00
1.979999999999999982e+00 1.500213552720040866e+00
2.000000000000000000e+00 1.487092476292155130e+00
2.020000000000000018e+00 1.474167494802347544e+00
2.040000000000000036e+00 1.461434601435689595e+00
2.060000000000000053e+00 1.448889897157906725e+00
2.080000000000000071e+00 1.436529552143740673e+00
2.100000000000000089e+00 1.424349841139984862e+00
2.120000000000000107e+00 1.412347104726118463e+00
2.140000000000000124e+00 1.400517784801662557e+00
2.160000000000000142e+00 1.388858385711032151e+00
2.180000000000000160e+00 1.377365509856631087e+00
2.200000000000000178e+00 1.366035818717447725e+00
2.220000000000000195e+00 1.354866068586272565e+00
2.240000000000000213e+00 1.343853071507743246e+00
2.260000000000000231e+00 1.332993731135557747e+00
2.280000000000000249e+00 1.322285003614070975e+00
2.300000000000000266e+00 1.311723933549245880e+00
2.319999999999999840e+00 1.301307614854952277e+00
2.339999999999999858e+00 1.291033226829620073e+00
2.359999999999999876e+00 1.280897994987477473e+00
2.379999999999999893e+00 1.270899227231355955e+00
2.399999999999999911e+00 1.261034274686779311e+00
2.419999999999999929e+00 1.251300567960207610e+00
2.439999999999999947e+00 1.241695577993396027e+00
2.459999999999999964e+00 1.232216852395338291e+00
2.479999999999999982e+00 1.222861976332492162e+00
2.500000000000000000e+00 1.213628608921915708e+00
2.520000000000000018e+00 1.204514444172771759e+00
2.540000000000000036e+00 1.195517247427514862e+00
2.560000000000000053e+00 1.186634816368603795e+00
2.580000000000000071e+00 1.177865017494108546e+00
2.600000000000000089e+00 1.169205747203617030e+00
2.620000000000000107e+00 1.160654968294274614e+00
2.640000000000000124e+00 1.152210671138623965e+00
2.660000000000000142e+00 1.143870910186802314e+00
2.680000000000000160e+00 1.135633765249303817e+00
2.700000000000000178e+00 1.127497377990871241e+00
2.720000000000000195e+00 1.119459913330081546e+00
2.740000000000000213e+00 1.111519595910372971e+00
2.760000000000000231e+00 1.103674671628698700e+00
2.780000000000000249e+00 1.095923444069068609e+00
2.800000000000000266e+00 1.088264236171566646e+00
2.819999999999999840e+00 1.080695426613798471e+00
2.839999999999999858e+00 1.073215411631966321e+00
2.859999999999999876e+00 1.065822641335655740e+00
2.879999999999999893e+00 1.058515581691816587e+00
2.899999999999999911e+00 1.051292750758398009e+00
2.919999999999999929e+00 1.044152680842536318e+00
2.939999999999999947e+00 1.037093954638634630e+00
2.959999999999999964e+00 1.030115167571266532e+00
2.979999999999999982e+00 1.023214963823478429e+00
3.000000000000000000e+00 1.016391998875352254e+00
3.020000000000000018e+00 1.009644975408447776e+00
3.040000000000000036e+00 1.002972606050241966e+00
3.060000000000000053e+00 9.963736491407950702e-01
3.080000000000000071e+00 9.898468716937783851e-01
3.100000000000000089e+00 9.833910850116041047e-01
3.120000000000000107e+00 9.770051078730327410e-01
3.140000000000000124e+00 9.706878019832450022e-01
3.160000000000000142e+00 9.644380353984676191e-01
3.180000000000000160e+00 9.582547177976675767e-01
3.200000000000000178e+00 9.521367641539484339e-01
3.220000000000000195e+00 9.460831298147578394e-01
3.240000000000000213e+00 9.400927744302740585e-01
3.260000000000000231e+00 9.341646968292340869e-01
3.280000000000000249e+00 9.282978992138622987e-01
3.300000000000000266e+00 9.224914218186391901e-01
3.320000000000000284e+00 9.167443073817709287e-01
3.339999999999999858e+00 9.110556355744551249e-01
3.359999999999999876e+00 9.054244877582309226e-01
3.379999999999999893e+00 8.998499811725161335e-01
3.399999999999999911e+00 8.943312339876130501e-01
3.419999999999999929e+00 8.888673992385213163e-01
3.439999999999999947e+00 8.834576301827293809e-01
3.459999999999999964e+00 8.781011139685358513e-01
3.479999999999999982e+00 8.727970373071650689e-01
3.500000000000000000e+00 8.675446198640700546e-01
3.520000000000000018e+00 8.623430802542657592e-01
3.540000000000000036e+00 8.571916691453029813e-01
3.560000000000000053e+00 8.520896355851406145e-01
3.580000000000000071e+00 8.470362598056941916e-01
3.600000000000000089e+00 8.420308198919156384e-01
3.620000000000000107e+00 8.370726242750691215e-01
3.640000000000000124e+00 8.321609787520772850e-01
3.660000000000000142e+00 8.272952186578999001e-01
3.680000000000000160e+00 8.224746762435627412e-01
3.700000000000000178e+00 8.176987125172135995e-01
3.720000000000000195e+00 8.129666849896780567e-01
3.740000000000000213e+00 8.082779791740031250e-01
3.760000000000000231e+00 8.036319767066854025e-01
3.780000000000000249e+00 7.990280864957384210e-01
3.800000000000000266e+00 7.944657132261664367e-01
3.820000000000000284e+00 7.899442881467882982e-01
3.839999999999999858e+00 7.854632379678744281e-01
3.859999999999999876e+00 7.810220152771729651e-01
3.879999999999999893e+00 7.766200678380129618e-01
3.899999999999999911e+00 7.722568686252040404e-01
3.919999999999999929e+00 7.679318855312476932e-01
3.939999999999999947e+00 7.636446110129785358e-01
3.959999999999999964e+00 7.593945322139286080e-01
3.979999999999999982e+00 7.551811602127700418e-01
4.000000000000000000e+00 7.510040005692295573e-01
4.020000000000000462e+00 7.468625821656048602e-01
4.040000000000000036e+00 7.427564281839803551e-01
4.060000000000000497e+00 7.386850845323028603e-01
4.080000000000000071e+00 7.346480912600131807e-01
4.099999999999999645e+00 7.306450105603530254e-01
4.120000000000000107e+00 7.266753986318977843e-01
4.139999999999999680e+00 7.227388332489376177e-01
4.160000000000000142e+00 7.188348860757932668e-01
4.179999999999999716e+00 7.149631497973116812e-01
4.200000000000000178e+00 7.111232108931573315e-01
4.219999999999999751e+00 7.073146763206834553e-01
4.240000000000000213e+00 7.035371467557754999e-01
4.259999999999999787e+00 6.997902428205010628e-01
4.280000000000000249e+00 6.960735787974704492e-01
4.299999999999999822e+00 6.923867883948513491e-01
4.320000000000000284e+00 6.887294989405570167e-01
4.339999999999999858e+00 6.851013566774033503e-01
4.360000000000000320e+00 6.815020014438084583e-01
4.379999999999999893e+00 6.779310914920420039e-01
4.400000000000000355e+00 6.743882786614657787e-01
4.419999999999999929e+00 6.708732327129965922e-01
4.440000000000000391e+00 6.673856170013128253e-01
4.459999999999999964e+00 6.639251123188079085e-01
4.480000000000000426e+00 6.604913930725611060e-01
4.500000000000000000e+00 6.570841506312012914e-01
4.520000000000000462e+00 6.537030700128136917e-01
4.540000000000000036e+00 6.503478527283326205e-01
4.560000000000000497e+00 6.470181939858995479e-01
4.580000000000000071e+00 6.437138050245366783e-01
4.600000000000000533e+00 6.404343908408819397e-01
4.620000000000000107e+00 6.371796720070511677e-01
4.639999999999999680e+00 6.339493629250313456e-01
4.660000000000000142e+00 6.307431931227898136e-01
4.679999999999999716e+00 6.275608860419894519e-01
4.700000000000000178e+00 6.244021798065636508e-01
4.719999999999999751e+00 6.212668065487869651e-01
4.740000000000000213e+00 6.181545126446515992e-01
4.759999999999999787e+00 6.150650385837452827e-01
4.780000000000000249e+00 6.119981386659089084e-01
4.799999999999999822e+00 6.089535614197214564e-01
4.820000000000000284e+00 6.059310687550696350e-01
4.839999999999999858e+00 6.029304169354448018e-01
4.860000000000000320e+00 5.999513751811732520e-01
4.879999999999999893e+00 5.969937072001095801e-01
4.900000000000000355e+00 5.940571892364053808e-01
4.919999999999999929e+00 5.911415921645971627e-01
4.940000000000000391e+00 5.882466989789156830e-01
4.959999999999999964e+00 5.853722874551348099e-01
4.980000000000000426e+00 5.825181470755315116e-01
5.000000000000000000e+00 5.796840622633055995e-01
5.020000000000000462e+00 5.768698287384372847e-01
5.040000000000000036e+00 5.740752373288081634e-01
5.060000000000000497e+00 5.713000897523283772e-01
5.080000000000000071e+00 5.685441830093649340e-01
5.100000000000000533e+00 5.658073245865856693e-01
5.120000000000000107e+00 5.630893174346687235e-01
5.139999999999999680e+00 5.603899745894279638e-01
5.160000000000000142e+00 5.577091047392259693e-01
5.179999999999999716e+00 5.550465262590532634e-01
5.200000000000000178e+00 5.524020533714230075e-01
5.219999999999999751e+00 5.497755095891688759e-01
5.240000000000000213e+00 5.471667144740819388e-01
5.259999999999999787e+00 5.445754964842850487e-01
5.280000000000000249e+00 5.420016803342200262e-01
5.299999999999999822e+00 5.394450992425566804e-01
5.320000000000000284e+00 5.369055828976228018e-01
5.339999999999999858e+00 5.343829691018994188e-01
5.360000000000000320e+00 5.318770923463304046e-01
5.379999999999999893e+00 5.293877948475255169e-01
5.400000000000000355e+00 5.269149157349251045e-01
5.419999999999999929e+00 5.244583014768978702e-01
5.440000000000000391e+00 5.220177956840649225e-01
5.459999999999999964e+00 5.195932489205756788e-01
5.480000000000000426e+00 5.171845091274175354e-01
5.500000000000000000e+00 5.147914308152240492e-01
5.520000000000000462e+00 5.124138661107288106e-01
5.540000000000000036e+00 5.100516733275328729e-01
5.560000000000000497e+00 5.077047086394184117e-01
5.580000000000000071e+00 5.053728340255534413e-01
5.600000000000000533e+00 5.030559095737121567e-01
5.620000000000000107e+00 5.007538007964611459e-01
5.639999999999999680e+00 4.984663715679048535e-01
5.660000000000000142e+00 4.961934908074506767e-01
5.679999999999999716e+00 4.939350260530113723e-01
5.700000000000000178e+00 4.916908495090109854e-01
5.719999999999999751e+00 4.894608322595726535e-01
5.740000000000000213e+00 4.872448496774626769e-01
5.759999999999999787e+00 4.850427762801066134e-01
5.780000000000000249e+00 4.828544904962243645e-01
5.799999999999999822e+00 4.806798701681274100e-01
5.820000000000000284e+00 4.785187966728415843e-01
5.839999999999999858e+00 4.763711510734285337e-01
5.860000000000000320e+00 4.742368175914423167e-01
5.879999999999999893e+00 4.721156804106730331e-01
5.900000000000000355e+00 4.700076264977883778e-01
5.919999999999999929e+00 4.679125430611956737e-01
5.940000000000000391e+00 4.658303197167721899e-01
5.959999999999999964e+00 4.637608466051861833e-01
5.980000000000000426e+00 4.617040158996370547e-01
6.000000000000000000e+00 4.596597205842838929e-01
6.020000000000000462e+00 4.576278553009410222e-01
6.040000000000000036e+00 4.556083157919191273e-01
6.060000000000000497e+00 4.536009990826470051e-01
6.080000000000000071e+00 4.516058035915356261e-01
6.100000000000000533e+00 4.496226286455042298e-01
6.120000000000000107e+00 4.476513752601538054e-01
6.140000000000000568e+00 4.456919449852012050e-01
6.160000000000000142e+00 4.437442413575393707e-01
6.179999999999999716e+00 4.418081680735845840e-01
6.200000000000000178e+00 4.398836311185106984e-01
6.219999999999999751e+00 4.379705362625127552e-01
6.240000000000000213e+00 4.360687918687934372e-01
6.259999999999999787e+00 4.341783057107539423e-01
6.280000000000000249e+00 4.322989884620209167e-01
6.299999999999999822e+00 4.304307498315770308e-01
6.320000000000000284e+00 4.285735027384058871e-01
6.339999999999999858e+00 4.267271587615596995e-01
6.360000000000000320e+00 4.248916330027414645e-01
6.379999999999999893e+00 4.230668388483059261e-01
6.400000000000000355e+00 4.212526935223709912e-01
6.419999999999999929e+00 4.194491121577281767e-01
6.440000000000000391e+00 4.176560140428376977e-01
6.459999999999999964e+00 4.158733159986197081e-01
6.480000000000000426e+00 4.141009393219543533e-01
6.500000000000000000e+00 4.123388024652877015e-01
6.520000000000000462e+00 4.105868286800486988e-01
6.540000000000000036e+00 4.088449379959950281e-01
6.560000000000000497e+00 4.071130555672115570e-01
6.580000000000000071e+00 4.053911029480811168e-01
6.600000000000000533e+00 4.036790071453492668e-01
6.620000000000000107e+00 4.019766911875726767e-01
6.640000000000000568e+00 4.002840838859786921e-01
6.660000000000000142e+00 3.986011096942077003e-01
6.679999999999999716e+00 3.969276991815370303e-01
6.700000000000000178e+00 3.952637781797027072e-01
6.719999999999999751e+00 3.936092789712778983e-01
6.740000000000000213e+00 3.919641287203214364e-01
6.759999999999999787e+00 3.903282613795582279e-01
6.780000000000000249e+00 3.887016054015590139e-01
6.799999999999999822e+00 3.870840963676139834e-01
6.820000000000000284e+00 3.854756639760719694e-01
6.839999999999999858e+00 3.838762453966913513e-01
6.860000000000000320e+00 3.822857715327158123e-01
6.879999999999999893e+00 3.807041811036973589e-01
6.900000000000000355e+00 3.791314061778554012e-01
6.919999999999999929e+00 3.775673869872459010e-01
6.940000000000000391e+00 3.760120567268748215e-01
6.959999999999999964e+00 3.744653571053312424e-01
6.980000000000000426e+00 3.729272224070664388e-01
7.000000000000000000e+00 3.713975957825146335e-01
7.020000000000000462e+00 3.698764125698674188e-01
7.040000000000000036e+00 3.683636173279365988e-01
7.060000000000000497e+00 3.668591464136906621e-01
7.080000000000000071e+00 3.653629457620311549e-01
7.100000000000000533e+00 3.638749527152918550e-01
7.120000000000000107e+00 3.623951145533182427e-01
7.140000000000000568e+00 3.609233695710311052e-01
7.160000000000000142e+00 3.594596663631665634e-01
7.179999999999999716e+00 3.580039441459336169e-01
7.200000000000000178e+00 3.565561527999587255e-01
7.219999999999999751e+00 3.551162324319787622e-01
7.240000000000000213e+00 3.536841341805326278e-01
7.259999999999999787e+00 3.522597990135326596e-01
7.280000000000000249e+00 3.508431793004240240e-01
7.299999999999999822e+00 3.494342168413932526e-01
7.320000000000000284e+00 3.480328652107345655e-01
7.339999999999999858e+00 3.466390670133557839e-01
7.360000000000000320e+00 3.452527770032550736e-01
7.379999999999999893e+00 3.438739385628721279e-01
7.400000000000000355e+00 3.425025076016420811e-01
7.419999999999999929e+00 3.411384282536354395e-01
7.440000000000000391e+00 3.397816575603045397e-01
7.459999999999999964e+00 3.384321403817453500e-01
7.480000000000000426e+00 3.370898348688267654e-01
7.500000000000000000e+00 3.357546865832983229e-01
7.520000000000000462e+00 3.344266547636302045e-01
7.540000000000000036e+00 3.331056856490834939e-01
7.560000000000000497e+00 3.317917395446858264e-01
7.580000000000000071e+00 3.304847633442371535e-01
7.600000000000000533e+00 3.291847183990090908e-01
7.620000000000000107e+00 3.278915522345432487e-01
7.640000000000000568e+00 3.266052272287600644e-01
7.660000000000000142e+00 3.253256915172780817e-01
7.679999999999999716e+00 3.240529084857539655e-01
7.700000000000000178e+00 3.227868268583162226e-01
7.719999999999999751e+00 3.215274110101175031e-01
7.740000000000000213e+00 3.202746102333314249e-01
7.759999999999999787e+00 3.190283898750085334e-01
7.780000000000000249e+00 3.177886997749421183e-01
7.799999999999999822e+00 3.165555062351039228e-01
7.820000000000000284e+00 3.153287596235504475e-01
7.839999999999999858e+00 3.141084271808031181e-01
7.860000000000000320e+00 3.128944597838027586e-01
7.879999999999999893e+00 3.116868255958367695e-01
