# Electrodo circular de radio 6 mm y espesor 710.0 um.
# Volumen de simulacion (convencion z,y,x):
# N: 1024 x 1024 x 1024 | voxelSize:  0.02mm x 0.02mm x 0.02mm | FOV:  20.48mm x 20.48mm x 20.48mm
# 
# z [mm]		 delta[ppm]
0.000000000000000000e+00 2.375492539133530201e+00
2.000000000000000042e-02 2.373053925031809008e+00
4.000000000000000083e-02 2.370541046588610090e+00
5.999999999999999778e-02 2.367954298833692128e+00
8.000000000000000167e-02 2.365294096733714824e+00
1.000000000000000056e-01 2.362560870896005749e+00
1.199999999999999956e-01 2.359755059036534153e+00
1.400000000000000133e-01 2.356877111621896503e+00
1.600000000000000033e-01 2.353927487155766052e+00
1.799999999999999933e-01 2.350906656292458319e+00
2.000000000000000111e-01 2.347815097602369949e+00
2.200000000000000011e-01 2.344653301509951326e+00
2.399999999999999911e-01 2.341421765945692623e+00
2.600000000000000089e-01 2.338121000406452765e+00
2.800000000000000266e-01 2.334751521462624435e+00
2.999999999999999889e-01 2.331313856965968601e+00
3.200000000000000067e-01 2.327808541389460029e+00
3.400000000000000244e-01 2.324236120195507294e+00
3.599999999999999867e-01 2.320597145005366624e+00
3.800000000000000044e-01 2.316892178130568691e+00
4.000000000000000222e-01 2.313121787570592502e+00
4.199999999999999845e-01 2.309286551709149649e+00
4.400000000000000022e-01 2.305387054139691916e+00
4.600000000000000200e-01 2.301423888526276773e+00
4.799999999999999822e-01 2.297397653259640737e+00
5.000000000000000000e-01 2.293308956481590055e+00
5.200000000000000178e-01 2.289158410572762481e+00
5.400000000000000355e-01 2.284946637338974629e+00
5.600000000000000533e-01 2.280674262334536184e+00
5.799999999999999600e-01 2.276341920208496461e+00
5.999999999999999778e-01 2.271950248865545863e+00
6.199999999999999956e-01 2.267499894969930985e+00
6.400000000000000133e-01 2.262991507948218128e+00
6.600000000000000311e-01 2.258425745648256378e+00
6.800000000000000488e-01 2.253803268186532538e+00
7.000000000000000666e-01 2.249124743759452816e+00
7.199999999999999734e-01 2.244390842339786030e+00
7.399999999999999911e-01 2.239602241637301372e+00
7.600000000000000089e-01 2.234759620647460920e+00
7.800000000000000266e-01 2.229863665758356372e+00
8.000000000000000444e-01 2.224915064156306688e+00
8.200000000000000622e-01 2.219914510075808867e+00
8.399999999999999689e-01 2.214862698065587221e+00
8.599999999999999867e-01 2.209760329378203103e+00
8.800000000000000044e-01 2.204608105101345750e+00
9.000000000000000222e-01 2.199406732683526489e+00
9.200000000000000400e-01 2.194156918934486278e+00
9.400000000000000577e-01 2.188859376683360836e+00
9.599999999999999645e-01 2.183514817653069873e+00
9.799999999999999822e-01 2.178123959247163288e+00
1.000000000000000000e+00 2.172687517302348326e+00
1.020000000000000018e+00 2.167206213000104409e+00
1.040000000000000036e+00 2.161680765502357993e+00
1.060000000000000053e+00 2.156111898983851027e+00
1.080000000000000071e+00 2.150500335155310694e+00
1.100000000000000089e+00 2.144846800412449905e+00
1.120000000000000107e+00 2.139152018251766485e+00
1.140000000000000124e+00 2.133416716531886248e+00
1.159999999999999920e+00 2.127641619786588389e+00
1.179999999999999938e+00 2.121827456594128414e+00
1.199999999999999956e+00 2.115974951792721992e+00
1.219999999999999973e+00 2.110084833953357553e+00
1.239999999999999991e+00 2.104157827502501021e+00
1.260000000000000009e+00 2.098194660293830616e+00
1.280000000000000027e+00 2.092196055643503083e+00
1.300000000000000044e+00 2.086162739996083815e+00
1.320000000000000062e+00 2.080095434877348382e+00
1.340000000000000080e+00 2.073994864649593151e+00
1.360000000000000098e+00 2.067861748387427312e+00
1.380000000000000115e+00 2.061696807717549706e+00
1.400000000000000133e+00 2.055500758622634816e+00
1.419999999999999929e+00 2.049274319360567809e+00
1.439999999999999947e+00 2.043018202201999145e+00
1.459999999999999964e+00 2.036733121423886406e+00
1.479999999999999982e+00 2.030419784986006615e+00
1.500000000000000000e+00 2.024078902593585028e+00
1.520000000000000018e+00 2.017711177318441962e+00
1.540000000000000036e+00 2.011317313725353717e+00
1.560000000000000053e+00 2.004898009443276674e+00
1.580000000000000071e+00 1.998453963350030671e+00
1.600000000000000089e+00 1.991985867099360430e+00
1.620000000000000107e+00 1.985494413358420251e+00
1.640000000000000124e+00 1.978980287296247642e+00
1.660000000000000142e+00 1.972444174868435374e+00
1.679999999999999938e+00 1.965886754272896386e+00
1.699999999999999956e+00 1.959308704276013113e+00
1.719999999999999973e+00 1.952710695641405758e+00
1.739999999999999991e+00 1.946093399491754417e+00
1.760000000000000009e+00 1.939457478716569483e+00
1.780000000000000027e+00 1.932803596363776855e+00
1.800000000000000044e+00 1.926132407032342453e+00
1.820000000000000062e+00 1.919444565287639737e+00
1.840000000000000080e+00 1.912740717045036787e+00
1.860000000000000098e+00 1.906021508002963438e+00
1.880000000000000115e+00 1.899287575023422603e+00
1.900000000000000133e+00 1.892539554576636363e+00
1.919999999999999929e+00 1.885778074124658588e+00
1.939999999999999947e+00 1.879003760571373416e+00
1.959999999999999964e+00 1.872217231655312064e+00
1.979999999999999982e+00 1.865419104398671868e+00
2.000000000000000000e+00 1.858609986515655343e+00
2.020000000000000018e+00 1.851790484854125118e+00
2.040000000000000036e+00 1.844961196825666061e+00
2.060000000000000053e+00 1.838122718833418157e+00
2.080000000000000071e+00 1.831275637730252148e+00
2.100000000000000089e+00 1.824420539226255800e+00
2.120000000000000107e+00 1.817557999381359091e+00
2.140000000000000124e+00 1.810688592985844281e+00
2.160000000000000142e+00 1.803812885093929452e+00
2.180000000000000160e+00 1.796931439370631267e+00
2.200000000000000178e+00 1.790044809672740156e+00
2.220000000000000195e+00 1.783153548355286055e+00
2.240000000000000213e+00 1.776258197906516179e+00
2.260000000000000231e+00 1.769359299207151404e+00
2.280000000000000249e+00 1.762457383225904728e+00
2.300000000000000266e+00 1.755552979224648924e+00
2.319999999999999840e+00 1.748646606521194080e+00
2.339999999999999858e+00 1.741738782633415417e+00
2.359999999999999876e+00 1.734830015115947699e+00
2.379999999999999893e+00 1.727920809636275257e+00
2.399999999999999911e+00 1.721011661892130507e+00
2.419999999999999929e+00 1.714103065612494925e+00
2.439999999999999947e+00 1.707195504562470489e+00
2.459999999999999964e+00 1.700289460462061975e+00
2.479999999999999982e+00 1.693385405085412465e+00
2.500000000000000000e+00 1.686483808090206038e+00
2.520000000000000018e+00 1.679585129218128081e+00
2.540000000000000036e+00 1.672689826027654814e+00
2.560000000000000053e+00 1.665798346202735258e+00
2.580000000000000071e+00 1.658911135181679652e+00
2.600000000000000089e+00 1.652028628581024838e+00
2.620000000000000107e+00 1.645151259713202974e+00
2.640000000000000124e+00 1.638279452132665792e+00
2.660000000000000142e+00 1.631413627034947078e+00
2.680000000000000160e+00 1.624554195932117473e+00
2.700000000000000178e+00 1.617701567925812656e+00
2.720000000000000195e+00 1.610856142519177414e+00
2.740000000000000213e+00 1.604018316756387286e+00
2.760000000000000231e+00 1.597188478178257265e+00
2.780000000000000249e+00 1.590367011820728038e+00
2.800000000000000266e+00 1.583554293321384199e+00
2.819999999999999840e+00 1.576750695769360444e+00
2.839999999999999858e+00 1.569956582970011505e+00
2.859999999999999876e+00 1.563172316138638385e+00
2.879999999999999893e+00 1.556398247330652573e+00
2.899999999999999911e+00 1.549634725971464455e+00
2.919999999999999929e+00 1.542882092459514576e+00
2.939999999999999947e+00 1.536140684524607281e+00
2.959999999999999964e+00 1.529410831011237315e+00
2.979999999999999982e+00 1.522692858057669518e+00
3.000000000000000000e+00 1.515987083066975938e+00
3.020000000000000018e+00 1.509293820699100008e+00
3.040000000000000036e+00 1.502613377037113951e+00
3.060000000000000053e+00 1.495946055384461681e+00
3.080000000000000071e+00 1.489292150633974021e+00
3.100000000000000089e+00 1.482651954862437726e+00
3.120000000000000107e+00 1.476025751909957551e+00
3.140000000000000124e+00 1.469413822763992350e+00
3.160000000000000142e+00 1.462816440356671244e+00
3.180000000000000160e+00 1.456233874730370470e+00
3.200000000000000178e+00 1.449666388060660616e+00
3.220000000000000195e+00 1.443114239595515436e+00
3.240000000000000213e+00 1.436577680911538035e+00
3.260000000000000231e+00 1.430056960618825590e+00
3.280000000000000249e+00 1.423552319858263360e+00
3.300000000000000266e+00 1.417063996764020395e+00
3.320000000000000284e+00 1.410592222209667623e+00
3.339999999999999858e+00 1.404137224020275410e+00
3.359999999999999876e+00 1.397699222975185007e+00
3.379999999999999893e+00 1.391278436761641979e+00
3.399999999999999911e+00 1.384875076242074954e+00
3.419999999999999929e+00 1.378489349141140519e+00
3.439999999999999947e+00 1.372121456585414512e+00
3.459999999999999964e+00 1.365771596515767072e+00
3.479999999999999982e+00 1.359439960507344392e+00
3.500000000000000000e+00 1.353126736899100013e+00
3.520000000000000018e+00 1.346832107902084408e+00
3.540000000000000036e+00 1.340556252437953511e+00
3.560000000000000053e+00 1.334299343543528638e+00
3.580000000000000071e+00 1.328061550910051292e+00
3.600000000000000089e+00 1.321843038592108055e+00
3.620000000000000107e+00 1.315643967239396028e+00
3.640000000000000124e+00 1.309464492118029177e+00
3.660000000000000142e+00 1.303304765026566781e+00
3.680000000000000160e+00 1.297164932637842716e+00
3.700000000000000178e+00 1.291045138090934907e+00
3.720000000000000195e+00 1.284945519661663260e+00
3.740000000000000213e+00 1.278866212022175208e+00
3.760000000000000231e+00 1.272807345248297528e+00
3.780000000000000249e+00 1.266769045738407984e+00
3.800000000000000266e+00 1.260751435565822032e+00
3.820000000000000284e+00 1.254754633048568824e+00
3.839999999999999858e+00 1.248778752455103724e+00
3.859999999999999876e+00 1.242823904216573627e+00
3.879999999999999893e+00 1.236890194994111125e+00
3.899999999999999911e+00 1.230977727525155663e+00
3.919999999999999929e+00 1.225086601060686897e+00
3.939999999999999947e+00 1.219216910837138679e+00
3.959999999999999964e+00 1.213368748891888282e+00
3.979999999999999982e+00 1.207542203152281779e+00
4.000000000000000000e+00 1.201737358637810837e+00
4.020000000000000462e+00 1.195954296157713870e+00
4.040000000000000036e+00 1.190193093908231026e+00
4.060000000000000497e+00 1.184453825770264590e+00
4.080000000000000071e+00 1.178736563310180507e+00
4.099999999999999645e+00 1.173041373668968212e+00
4.120000000000000107e+00 1.167368321975038148e+00
4.139999999999999680e+00 1.161717468816279464e+00
4.160000000000000142e+00 1.156088873073437107e+00
4.179999999999999716e+00 1.150482588966425856e+00
4.200000000000000178e+00 1.144898669316797291e+00
4.219999999999999751e+00 1.139337162159681949e+00
4.240000000000000213e+00 1.133798114443973049e+00
4.259999999999999787e+00 1.128281568201204843e+00
4.280000000000000249e+00 1.122787564692031781e+00
4.299999999999999822e+00 1.117316140123358670e+00
4.320000000000000284e+00 1.111867330249815877e+00
4.339999999999999858e+00 1.106441165630364765e+00
4.360000000000000320e+00 1.101037676693473077e+00
4.379999999999999893e+00 1.095656888524415340e+00
4.400000000000000355e+00 1.090298826402885002e+00
4.419999999999999929e+00 1.084963510112233243e+00
4.440000000000000391e+00 1.079650959958218248e+00
4.459999999999999964e+00 1.074361190591365478e+00
4.480000000000000426e+00 1.069094217515716316e+00
4.500000000000000000e+00 1.063850050415394266e+00
4.520000000000000462e+00 1.058628700162182579e+00
4.540000000000000036e+00 1.053430171637442569e+00
4.560000000000000497e+00 1.048254471247378694e+00
4.580000000000000071e+00 1.043101599231385901e+00
4.600000000000000533e+00 1.037971557693904590e+00
4.620000000000000107e+00 1.032864342390229506e+00
4.639999999999999680e+00 1.027779951283937399e+00
4.660000000000000142e+00 1.022718375801166424e+00
4.679999999999999716e+00 1.017679609922560457e+00
4.700000000000000178e+00 1.012663640897002004e+00
4.719999999999999751e+00 1.007670458877142350e+00
4.740000000000000213e+00 1.002700047083502355e+00
4.759999999999999787e+00 9.977523919926283291e-01
4.780000000000000249e+00 9.928274729424736433e-01
4.799999999999999822e+00 9.879252728823124663e-01
4.820000000000000284e+00 9.830457674102621723e-01
4.839999999999999858e+00 9.781889360940619893e-01
4.860000000000000320e+00 9.733547509315882973e-01
4.879999999999999893e+00 9.685431882516870594e-01
4.900000000000000355e+00 9.637542165884805945e-01
4.919999999999999929e+00 9.589878091714623132e-01
4.940000000000000391e+00 9.542439312043285993e-01
4.959999999999999964e+00 9.495225529536401865e-01
4.980000000000000426e+00 9.448236364228946860e-01
5.000000000000000000e+00 9.401471490490258542e-01
5.020000000000000462e+00 9.354930497623992203e-01
5.040000000000000036e+00 9.308613033005276316e-01
5.060000000000000497e+00 9.262518656446115939e-01
5.080000000000000071e+00 9.216646989598431539e-01
5.100000000000000533e+00 9.170997563990901380e-01
5.120000000000000107e+00 9.125569976792494709e-01
5.139999999999999680e+00 9.080363732426083301e-01
5.160000000000000142e+00 9.035378404787229867e-01
5.179999999999999716e+00 8.990613472339543666e-01
5.200000000000000178e+00 8.946068486884301008e-01
5.219999999999999751e+00 8.901742902042065753e-01
5.240000000000000213e+00 8.857636248668733225e-01
5.259999999999999787e+00 8.813747956627439040e-01
5.280000000000000249e+00 8.770077536947629149e-01
5.299999999999999822e+00 8.726624396790948479e-01
5.320000000000000284e+00 8.683388028449676721e-01
5.339999999999999858e+00 8.640367817409827511e-01
5.360000000000000320e+00 8.597563238286639598e-01
5.379999999999999893e+00 8.554973655887153638e-01
5.400000000000000355e+00 8.512598528180590485e-01
5.419999999999999929e+00 8.470437200262491695e-01
5.440000000000000391e+00 8.428489114458532772e-01
5.459999999999999964e+00 8.386753597091801682e-01
5.480000000000000426e+00 8.345230075818651505e-01
5.500000000000000000e+00 8.303917859100221621e-01
5.520000000000000462e+00 8.262816360870047783e-01
5.540000000000000036e+00 8.221924872610103519e-01
5.560000000000000497e+00 8.181242795450232030e-01
5.580000000000000071e+00 8.140769404748500193e-01
5.600000000000000533e+00 8.100504089723077339e-01
5.620000000000000107e+00 8.060446110436561007e-01
5.639999999999999680e+00 8.020594845061150835e-01
5.660000000000000142e+00 7.980949539165547169e-01
5.679999999999999716e+00 7.941509560715641625e-01
5.700000000000000178e+00 7.902274141561886900e-01
5.719999999999999751e+00 7.863242640277884332e-01
5.740000000000000213e+00 7.824414275745830150e-01
5.759999999999999787e+00 7.785788397935974325e-01
5.780000000000000249e+00 7.747364213487055729e-01
5.799999999999999822e+00 7.709141064530345977e-01
5.820000000000000284e+00 7.671118146161231000e-01
5.839999999999999858e+00 7.633294793412211954e-01
5.860000000000000320e+00 7.595670190511234487e-01
5.879999999999999893e+00 7.558243666108647174e-01
5.900000000000000355e+00 7.521014394217122589e-01
5.919999999999999929e+00 7.483981697798285371e-01
5.940000000000000391e+00 7.447144741278539648e-01
5.959999999999999964e+00 7.410502842601668361e-01
5.980000000000000426e+00 7.374055157213933454e-01
6.000000000000000000e+00 7.337800998689975041e-01
6.020000000000000462e+00 7.301739514079973459e-01
6.040000000000000036e+00 7.265870013216435552e-01
6.060000000000000497e+00 7.230191635315684762e-01
6.080000000000000071e+00 7.194703687074074372e-01
6.100000000000000533e+00 7.159405300414943829e-01
6.120000000000000107e+00 7.124295779483869051e-01
6.140000000000000568e+00 7.089374249431439345e-01
6.160000000000000142e+00 7.054640012417509043e-01
6.179999999999999716e+00 7.020092187319890709e-01
6.200000000000000178e+00 6.985730074858316208e-01
6.219999999999999751e+00 6.951552788117815185e-01
6.240000000000000213e+00 6.917559626904353776e-01
6.259999999999999787e+00 6.883749698971158848e-01
6.280000000000000249e+00 6.850122303718133576e-01
6.299999999999999822e+00 6.816676544008525296e-01
6.320000000000000284e+00 6.783411719325745937e-01
6.339999999999999858e+00 6.750326928066802123e-01
6.360000000000000320e+00 6.717421470270408257e-01
6.379999999999999893e+00 6.684694440273040161e-01
6.400000000000000355e+00 6.652145139123334383e-01
6.419999999999999929e+00 6.619772657485563094e-01
6.440000000000000391e+00 6.587576297856170271e-01
6.459999999999999964e+00 6.555555147598571830e-01
6.480000000000000426e+00 6.523708511078551986e-01
6.500000000000000000e+00 6.492035472713572064e-01
6.520000000000000462e+00 6.460535339144521938e-01
6.540000000000000036e+00 6.429207192181608521e-01
6.560000000000000497e+00 6.398050341131147345e-01
6.580000000000000071e+00 6.367063865519348997e-01
6.600000000000000533e+00 6.336247077693426544e-01
6.620000000000000107e+00 6.305599055203454650e-01
6.640000000000000568e+00 6.275119113798434123e-01
6.660000000000000142e+00 6.244806329345640172e-01
6.679999999999999716e+00 6.214660021342667262e-01
6.700000000000000178e+00 6.184679264252784803e-01
6.719999999999999751e+00 6.154863381655411025e-01
6.740000000000000213e+00 6.125211446874802013e-01
6.759999999999999787e+00 6.095722787892157157e-01
6.780000000000000249e+00 6.066396477144107013e-01
6.799999999999999822e+00 6.037231847320763123e-01
6.820000000000000284e+00 6.008227970209431001e-01
6.839999999999999858e+00 5.979384183503877459e-01
6.860000000000000320e+00 5.950699558567598135e-01
6.879999999999999893e+00 5.922173438380681221e-01
6.900000000000000355e+00 5.893804894096065228e-01
6.919999999999999929e+00 5.865593274251216238e-01
6.940000000000000391e+00 5.837537649989705812e-01
6.959999999999999964e+00 5.809637375666042436e-01
6.980000000000000426e+00 5.781891522604126754e-01
7.000000000000000000e+00 5.754299451224444972e-01
7.020000000000000462e+00 5.726860233209456474e-01
7.040000000000000036e+00 5.699573235283978967e-01
7.060000000000000497e+00 5.672437529656518818e-01
7.080000000000000071e+00 5.645452489584316114e-01
7.100000000000000533e+00 5.618617187958799830e-01
7.120000000000000107e+00 5.591931004787935588e-01
7.140000000000000568e+00 5.565393013792740984e-01
7.160000000000000142e+00 5.539002601940740123e-01
7.179999999999999716e+00 5.512758843919222107e-01
7.200000000000000178e+00 5.486661133854857653e-01
7.219999999999999751e+00 5.460708547528477785e-01
7.240000000000000213e+00 5.434900486416657239e-01
7.259999999999999787e+00 5.409236027511611367e-01
7.280000000000000249e+00 5.383714579822035384e-01
7.299999999999999822e+00 5.358335221660479597e-01
7.320000000000000284e+00 5.333097369741770510e-01
7.339999999999999858e+00 5.308000103799077607e-01
7.360000000000000320e+00 5.283042848419376991e-01
7.379999999999999893e+00 5.258224684848408215e-01
7.400000000000000355e+00 5.233545045703648091e-01
7.419999999999999929e+00 5.209003013827178119e-01
7.440000000000000391e+00 5.184598030018082726e-01
7.459999999999999964e+00 5.160329178790753479e-01
7.480000000000000426e+00 5.136195909269822835e-01
7.500000000000000000e+00 5.112197307710401040e-01
7.520000000000000462e+00 5.088332831699747816e-01
7.540000000000000036e+00 5.064601569294994166e-01
7.560000000000000497e+00 5.041002986676565989e-01
7.580000000000000071e+00 5.017536173757570772e-01
7.600000000000000533e+00 4.994200605435828999e-01
7.620000000000000107e+00 4.970995373527934413e-01
7.640000000000000568e+00 4.947919961767321961e-01
7.660000000000000142e+00 4.924973463914648630e-01
7.679999999999999716e+00 4.902155372651348375e-01
7.700000000000000178e+00 4.879464783716739862e-01
7.719999999999999751e+00 4.856901198846937939e-01
7.740000000000000213e+00 4.834463715788266946e-01
7.759999999999999787e+00 4.812151845432952602e-01
7.780000000000000249e+00 4.789964687556879652e-01
7.799999999999999822e+00 4.767901762304633251e-01
7.820000000000000284e+00 4.745962171498439575e-01
7.839999999999999858e+00 4.724145444626535184e-01
7.860000000000000320e+00 4.702450685569015132e-01
7.879999999999999893e+00 4.680877433244343688e-01
