# Electrodo circular de radio 6 mm y espesor 710.0 um.
# Volumen de simulacion (convencion z,y,x):
# N: 1024 x 1024 x 1024 | voxelSize:  0.02mm x 0.02mm x 0.02mm | FOV:  20.48mm x 20.48mm x 20.48mm
# 
# z [mm]		 delta[ppm]
0.000000000000000000e+00 2.569578562689984302e+00
2.000000000000000042e-02 2.565986337279476892e+00
4.000000000000000083e-02 2.562288263442231706e+00
5.999999999999999778e-02 2.558485306612551913e+00
8.000000000000000167e-02 2.554578406601013985e+00
1.000000000000000056e-01 2.550568520008640316e+00
1.199999999999999956e-01 2.546456625281607433e+00
1.400000000000000133e-01 2.542243723188363003e+00
1.600000000000000033e-01 2.537930832062982311e+00
1.799999999999999933e-01 2.533518992033463313e+00
2.000000000000000111e-01 2.529009258945433380e+00
2.200000000000000011e-01 2.524402709335499928e+00
2.399999999999999911e-01 2.519700434130964783e+00
2.600000000000000089e-01 2.514903543822891052e+00
2.800000000000000266e-01 2.510013161956011984e+00
2.999999999999999889e-01 2.505030430511222317e+00
3.200000000000000067e-01 2.499956503158287546e+00
3.400000000000000244e-01 2.494792550857595881e+00
3.599999999999999867e-01 2.489539754891327394e+00
3.800000000000000044e-01 2.484199312691594663e+00
4.000000000000000222e-01 2.478772430628823020e+00
4.199999999999999845e-01 2.473260330071835433e+00
4.400000000000000022e-01 2.467664239952398475e+00
4.600000000000000200e-01 2.461985403058268407e+00
4.799999999999999822e-01 2.456225068361653108e+00
5.000000000000000000e-01 2.450384497547193341e+00
5.200000000000000178e-01 2.444464957121108117e+00
5.400000000000000355e-01 2.438467725173233180e+00
5.600000000000000533e-01 2.432394083260079665e+00
5.799999999999999600e-01 2.426245323401008847e+00
5.999999999999999778e-01 2.420022739749622342e+00
6.199999999999999956e-01 2.413727635822274564e+00
6.400000000000000133e-01 2.407361315954442027e+00
6.600000000000000311e-01 2.400925092760475721e+00
6.800000000000000488e-01 2.394420278387507928e+00
7.000000000000000666e-01 2.387848192203972708e+00
7.199999999999999734e-01 2.381210151849982193e+00
7.399999999999999911e-01 2.374507481152637212e+00
7.600000000000000089e-01 2.367741500983971292e+00
7.800000000000000266e-01 2.360913537400075590e+00
8.000000000000000444e-01 2.354024912307067563e+00
8.200000000000000622e-01 2.347076951821306601e+00
8.399999999999999689e-01 2.340070976753427789e+00
8.599999999999999867e-01 2.333008311186158590e+00
8.800000000000000044e-01 2.325890272777955126e+00
9.000000000000000222e-01 2.318718181555044389e+00
9.200000000000000400e-01 2.311493350043879236e+00
9.400000000000000577e-01 2.304217092273463940e+00
9.599999999999999645e-01 2.296890713738879874e+00
9.799999999999999822e-01 2.289515520609968213e+00
1.000000000000000000e+00 2.282092809534536748e+00
1.020000000000000018e+00 2.274623877048930431e+00
1.040000000000000036e+00 2.267110009223761047e+00
1.060000000000000053e+00 2.259552491271944685e+00
1.080000000000000071e+00 2.251952597045015825e+00
1.100000000000000089e+00 2.244311598833717003e+00
1.120000000000000107e+00 2.236630756718210655e+00
1.140000000000000124e+00 2.228911328556285820e+00
1.159999999999999920e+00 2.221154559195128275e+00
1.179999999999999938e+00 2.213361690641820534e+00
1.199999999999999956e+00 2.205533951140318027e+00
1.219999999999999973e+00 2.197672565518870691e+00
1.239999999999999991e+00 2.189778744139537991e+00
1.260000000000000009e+00 2.181853693416826889e+00
1.280000000000000027e+00 2.173898604643677235e+00
1.300000000000000044e+00 2.165914664675513635e+00
1.320000000000000062e+00 2.157903044639825740e+00
1.340000000000000080e+00 2.149864910779550442e+00
1.360000000000000098e+00 2.141801413050409941e+00
1.380000000000000115e+00 2.133713696117474523e+00
1.400000000000000133e+00 2.125602887847187539e+00
1.419999999999999929e+00 2.117470110450691667e+00
1.439999999999999947e+00 2.109316468874936845e+00
1.459999999999999964e+00 2.101143062086276547e+00
1.479999999999999982e+00 2.092950971367459889e+00
1.500000000000000000e+00 2.084741271734786405e+00
1.520000000000000018e+00 2.076515020145596413e+00
1.540000000000000036e+00 2.068273267042161745e+00
1.560000000000000053e+00 2.060017044476411208e+00
1.580000000000000071e+00 2.051747377773604608e+00
1.600000000000000089e+00 2.043465273579052610e+00
1.620000000000000107e+00 2.035171731634529024e+00
1.640000000000000124e+00 2.026867732753692142e+00
1.660000000000000142e+00 2.018554250703995745e+00
1.679999999999999938e+00 2.010232240115800817e+00
1.699999999999999956e+00 2.001902648462524859e+00
1.719999999999999973e+00 1.993566403910105533e+00
1.739999999999999991e+00 1.985224427387975554e+00
1.760000000000000009e+00 1.976877620384061673e+00
1.780000000000000027e+00 1.968526877099091354e+00
1.800000000000000044e+00 1.960173072193848398e+00
1.820000000000000062e+00 1.951817073019209925e+00
1.840000000000000080e+00 1.943459727321035446e+00
1.860000000000000098e+00 1.935101875538275618e+00
1.880000000000000115e+00 1.926744338472250462e+00
1.900000000000000133e+00 1.918387929645106293e+00
1.919999999999999929e+00 1.910033442939014225e+00
1.939999999999999947e+00 1.901681665007200817e+00
1.959999999999999964e+00 1.893333362889903837e+00
1.979999999999999982e+00 1.884989296470080733e+00
2.000000000000000000e+00 1.876650206071878602e+00
2.020000000000000018e+00 1.868316824953140109e+00
2.040000000000000036e+00 1.859989866893269284e+00
2.060000000000000053e+00 1.851670038714568367e+00
2.080000000000000071e+00 1.843358027865431570e+00
2.100000000000000089e+00 1.835054514962519701e+00
2.120000000000000107e+00 1.826760161376295155e+00
2.140000000000000124e+00 1.818475621785957674e+00
2.160000000000000142e+00 1.810201531773446337e+00
2.180000000000000160e+00 1.801938520383066678e+00
2.200000000000000178e+00 1.793687197731063776e+00
2.220000000000000195e+00 1.785448167561810351e+00
2.240000000000000213e+00 1.777222014879255685e+00
2.260000000000000231e+00 1.769009318491551186e+00
2.280000000000000249e+00 1.760810638671564066e+00
2.300000000000000266e+00 1.752626529681766687e+00
2.319999999999999840e+00 1.744457527470313352e+00
2.339999999999999858e+00 1.736304162167987331e+00
2.359999999999999876e+00 1.728166945827174228e+00
2.379999999999999893e+00 1.720046384882645940e+00
2.399999999999999911e+00 1.711942967940067062e+00
2.419999999999999929e+00 1.703857178192408339e+00
2.439999999999999947e+00 1.695789481265419507e+00
2.459999999999999964e+00 1.687740337581400185e+00
2.479999999999999982e+00 1.679710190268466574e+00
2.500000000000000000e+00 1.671699477463435501e+00
2.520000000000000018e+00 1.663708620292414953e+00
2.540000000000000036e+00 1.655738035104518335e+00
2.560000000000000053e+00 1.647788121530761485e+00
2.580000000000000071e+00 1.639859274640330211e+00
2.600000000000000089e+00 1.631951873085419447e+00
2.620000000000000107e+00 1.624066291171763821e+00
2.640000000000000124e+00 1.616202887096547913e+00
2.660000000000000142e+00 1.608362014924893613e+00
2.680000000000000160e+00 1.600544012928595494e+00
2.700000000000000178e+00 1.592749215460257828e+00
2.720000000000000195e+00 1.584977941400104173e+00
2.740000000000000213e+00 1.577230505919455128e+00
2.760000000000000231e+00 1.569507209043475404e+00
2.780000000000000249e+00 1.561808347295662980e+00
2.800000000000000266e+00 1.554134202383907093e+00
2.819999999999999840e+00 1.546485052717691655e+00
2.839999999999999858e+00 1.538861162225386270e+00
2.859999999999999876e+00 1.531262791735848339e+00
2.879999999999999893e+00 1.523690187934447549e+00
2.899999999999999911e+00 1.516143594600728672e+00
2.919999999999999929e+00 1.508623241711222196e+00
2.939999999999999947e+00 1.501129356524808056e+00
2.959999999999999964e+00 1.493662152839922763e+00
2.979999999999999982e+00 1.486221841919319164e+00
3.000000000000000000e+00 1.478808621909754706e+00
3.020000000000000018e+00 1.471422688597814776e+00
3.040000000000000036e+00 1.464064224999791497e+00
3.060000000000000053e+00 1.456733411940228873e+00
3.080000000000000071e+00 1.449430417820182004e+00
3.100000000000000089e+00 1.442155409010134504e+00
3.120000000000000107e+00 1.434908539804431227e+00
3.140000000000000124e+00 1.427689962620246611e+00
3.160000000000000142e+00 1.420499818146423676e+00
3.180000000000000160e+00 1.413338245340138410e+00
3.200000000000000178e+00 1.406205371778035174e+00
3.220000000000000195e+00 1.399101323442267564e+00
3.240000000000000213e+00 1.392026215282191393e+00
3.260000000000000231e+00 1.384980160781438929e+00
3.280000000000000249e+00 1.377963262738155947e+00
3.300000000000000266e+00 1.370975622604748256e+00
3.320000000000000284e+00 1.364017331495000374e+00
3.339999999999999858e+00 1.357088479288153904e+00
3.359999999999999876e+00 1.350189145870929197e+00
3.379999999999999893e+00 1.343319409997592917e+00
3.399999999999999911e+00 1.336479340775278857e+00
3.419999999999999929e+00 1.329669006271676945e+00
3.439999999999999947e+00 1.322888465251726986e+00
3.459999999999999964e+00 1.316137775524623965e+00
3.479999999999999982e+00 1.309416985940282441e+00
3.500000000000000000e+00 1.302726144467281078e+00
3.520000000000000018e+00 1.296065290457270702e+00
3.540000000000000036e+00 1.289434462445515406e+00
3.560000000000000053e+00 1.282833690691670636e+00
3.580000000000000071e+00 1.276263004694549341e+00
3.600000000000000089e+00 1.269722426017500849e+00
3.620000000000000107e+00 1.263211975509042517e+00
3.640000000000000124e+00 1.256731666421281535e+00
3.660000000000000142e+00 1.250281511328084960e+00
3.680000000000000160e+00 1.243861515544777863e+00
3.700000000000000178e+00 1.237471683735457129e+00
3.720000000000000195e+00 1.231112013642508440e+00
3.740000000000000213e+00 1.224782502374694992e+00
3.760000000000000231e+00 1.218483140454729163e+00
3.780000000000000249e+00 1.212213917779806360e+00
3.800000000000000266e+00 1.205974817995747683e+00
3.820000000000000284e+00 1.199765824121587388e+00
3.839999999999999858e+00 1.193586913258622317e+00
3.859999999999999876e+00 1.187438061870666806e+00
3.879999999999999893e+00 1.181319240836544715e+00
3.899999999999999911e+00 1.175230420377634477e+00
3.919999999999999929e+00 1.169171565462151730e+00
3.939999999999999947e+00 1.163142640371598313e+00
3.959999999999999964e+00 1.157143604465390441e+00
3.979999999999999982e+00 1.151174416377821696e+00
4.000000000000000000e+00 1.145235030151426026e+00
4.020000000000000462e+00 1.139325399056037469e+00
4.040000000000000036e+00 1.133445472099457785e+00
4.060000000000000497e+00 1.127595197460244947e+00
4.080000000000000071e+00 1.121774519384059809e+00
4.099999999999999645e+00 1.115983381221787196e+00
4.120000000000000107e+00 1.110221722720146964e+00
4.139999999999999680e+00 1.104489482656724419e+00
4.160000000000000142e+00 1.098786596533295690e+00
4.179999999999999716e+00 1.093112998799335989e+00
4.200000000000000178e+00 1.087468620956652199e+00
4.219999999999999751e+00 1.081853393362956828e+00
4.240000000000000213e+00 1.076267243756262815e+00
4.259999999999999787e+00 1.070710098630078377e+00
4.280000000000000249e+00 1.065181882186168272e+00
4.299999999999999822e+00 1.059682517272956703e+00
4.320000000000000284e+00 1.054211924775124931e+00
4.339999999999999858e+00 1.048770024106738141e+00
4.360000000000000320e+00 1.043356733046360008e+00
4.379999999999999893e+00 1.037971967776425419e+00
4.400000000000000355e+00 1.032615643172348552e+00
4.419999999999999929e+00 1.027287672379702421e+00
4.440000000000000391e+00 1.021987967565945343e+00
4.459999999999999964e+00 1.016716439026950081e+00
4.480000000000000426e+00 1.011472996409881642e+00
4.500000000000000000e+00 1.006257547340527747e+00
4.520000000000000462e+00 1.001069999126042998e+00
4.540000000000000036e+00 9.959102568946015532e-01
4.560000000000000497e+00 9.907782257865053177e-01
4.580000000000000071e+00 9.856738085976466390e-01
4.600000000000000533e+00 9.805969084676998682e-01
4.620000000000000107e+00 9.755474260188561342e-01
4.639999999999999680e+00 9.705252625496705310e-01
4.660000000000000142e+00 9.655303166605193610e-01
4.679999999999999716e+00 9.605624879618230860e-01
4.700000000000000178e+00 9.556216731776734363e-01
4.719999999999999751e+00 9.507077703770440147e-01
4.740000000000000213e+00 9.458206745469788235e-01
4.759999999999999787e+00 9.409602823555646145e-01
4.780000000000000249e+00 9.361264871860891512e-01
4.799999999999999822e+00 9.313191844404018482e-01
4.820000000000000284e+00 9.265382660254306568e-01
4.839999999999999858e+00 9.217836262057108598e-01
4.860000000000000320e+00 9.170551555336412530e-01
4.879999999999999893e+00 9.123527472598393917e-01
4.900000000000000355e+00 9.076762906984822132e-01
4.919999999999999929e+00 9.030256782043238895e-01
4.940000000000000391e+00 8.984007979644376141e-01
4.959999999999999964e+00 8.938015415506033179e-01
4.980000000000000426e+00 8.892277961287549104e-01
5.000000000000000000e+00 8.846794525956047650e-01
5.020000000000000462e+00 8.801563971970770561e-01
5.040000000000000036e+00 8.756585202579195704e-01
5.060000000000000497e+00 8.711857072003719171e-01
5.080000000000000071e+00 8.667378478756756488e-01
5.100000000000000533e+00 8.623148269742184624e-01
5.120000000000000107e+00 8.579165339677323754e-01
5.139999999999999680e+00 8.535428529021054089e-01
5.160000000000000142e+00 8.491936729592458599e-01
5.179999999999999716e+00 8.448688776237283093e-01
5.200000000000000178e+00 8.405683558731740224e-01
5.219999999999999751e+00 8.362919907098753658e-01
5.240000000000000213e+00 8.320396709887074582e-01
5.259999999999999787e+00 8.278112793048396645e-01
5.280000000000000249e+00 8.236067044680928095e-01
5.299999999999999822e+00 8.194258287378264338e-01
5.320000000000000284e+00 8.152685409527977711e-01
5.339999999999999858e+00 8.111347231042838057e-01
5.360000000000000320e+00 8.070242641304211650e-01
5.379999999999999893e+00 8.029370458185492998e-01
5.400000000000000355e+00 7.988729572731985140e-01
5.419999999999999929e+00 7.948318801386191623e-01
5.440000000000000391e+00 7.908137037494602506e-01
5.459999999999999964e+00 7.868183096644243424e-01
5.480000000000000426e+00 7.828455875088398130e-01
5.500000000000000000e+00 7.788954188103501819e-01
5.520000000000000462e+00 7.749676935424979485e-01
5.540000000000000036e+00 7.710622932532855689e-01
5.560000000000000497e+00 7.671791083190914184e-01
5.580000000000000071e+00 7.633180203568979971e-01
5.600000000000000533e+00 7.594789201977287796e-01
5.620000000000000107e+00 7.556616895733400119e-01
5.639999999999999680e+00 7.518662198185401824e-01
5.660000000000000142e+00 7.480923928230587272e-01
5.679999999999999716e+00 7.443401004720553438e-01
5.700000000000000178e+00 7.406092248538176381e-01
5.719999999999999751e+00 7.368996584479513556e-01
5.740000000000000213e+00 7.332112835795305816e-01
5.759999999999999787e+00 7.295439933643319552e-01
5.780000000000000249e+00 7.258976704000161817e-01
5.799999999999999822e+00 7.222722084779957807e-01
5.820000000000000284e+00 7.186674905021581683e-01
5.839999999999999858e+00 7.150834109768396951e-01
5.860000000000000320e+00 7.115198531435543705e-01
5.879999999999999893e+00 7.079767122547776514e-01
5.900000000000000355e+00 7.044538719190727161e-01
5.919999999999999929e+00 7.009512281702698910e-01
5.940000000000000391e+00 6.974686650113465225e-01
5.959999999999999964e+00 6.940060792888086416e-01
5.980000000000000426e+00 6.905633554255929951e-01
6.000000000000000000e+00 6.871403911103732831e-01
6.020000000000000462e+00 6.837370712097066150e-01
6.040000000000000036e+00 6.803532942821800544e-01
6.060000000000000497e+00 6.769889456599740285e-01
6.080000000000000071e+00 6.736439247976784284e-01
6.100000000000000533e+00 6.703181175133403613e-01
6.120000000000000107e+00 6.670114241820531698e-01
6.140000000000000568e+00 6.637237311264854167e-01
6.160000000000000142e+00 6.604549396651928639e-01
6.179999999999999716e+00 6.572049366426118144e-01
6.200000000000000178e+00 6.539736243422884510e-01
6.219999999999999751e+00 6.507608901461837680e-01
6.240000000000000213e+00 6.475666373229673756e-01
6.259999999999999787e+00 6.443907538064321816e-01
6.280000000000000249e+00 6.412331438691799557e-01
6.299999999999999822e+00 6.380936960098689825e-01
6.320000000000000284e+00 6.349723155225832638e-01
6.339999999999999858e+00 6.318688914825469904e-01
6.360000000000000320e+00 6.287833302216678799e-01
6.379999999999999893e+00 6.257155214022899203e-01
6.400000000000000355e+00 6.226653724093451636e-01
6.419999999999999929e+00 6.196327735016092797e-01
6.440000000000000391e+00 6.166176331311461478e-01
6.459999999999999964e+00 6.136198421614504905e-01
6.480000000000000426e+00 6.106393101247808985e-01
6.500000000000000000e+00 6.076759284964980967e-01
6.520000000000000462e+00 6.047296079011330594e-01
6.540000000000000036e+00 6.018002404321227683e-01
6.560000000000000497e+00 5.988877378174013444e-01
6.580000000000000071e+00 5.959919927736551104e-01
6.600000000000000533e+00 5.931129181424653618e-01
6.620000000000000107e+00 5.902504072680883063e-01
6.640000000000000568e+00 5.874043741151399045e-01
6.660000000000000142e+00 5.845747126588201059e-01
6.679999999999999716e+00 5.817613379953544550e-01
6.700000000000000178e+00 5.789641447334947788e-01
6.719999999999999751e+00 5.761830491088927308e-01
6.740000000000000213e+00 5.734179463655847409e-01
6.759999999999999787e+00 5.706687538857305730e-01
6.780000000000000249e+00 5.679353675497021969e-01
6.799999999999999822e+00 5.652177058925622610e-01
6.820000000000000284e+00 5.625156654312590820e-01
6.839999999999999858e+00 5.598291658595011544e-01
6.860000000000000320e+00 5.571581043304469905e-01
6.879999999999999893e+00 5.545024017015708351e-01
6.900000000000000355e+00 5.518619557611346149e-01
6.919999999999999929e+00 5.492366885349185823e-01
6.940000000000000391e+00 5.466264984446365105e-01
6.959999999999999964e+00 5.440313086883487026e-01
6.980000000000000426e+00 5.414510183188944170e-01
7.000000000000000000e+00 5.388855517100789028e-01
7.020000000000000462e+00 5.363348085430458267e-01
7.040000000000000036e+00 5.337987143703146753e-01
7.060000000000000497e+00 5.312771694978930537e-01
7.080000000000000071e+00 5.287701006595140196e-01
7.100000000000000533e+00 5.262774087821806557e-01
7.120000000000000107e+00 5.237990217829051609e-01
7.140000000000000568e+00 5.213348412052414282e-01
7.160000000000000142e+00 5.188847961511375839e-01
7.179999999999999716e+00 5.164487887758717477e-01
7.200000000000000178e+00 5.140267493675907406e-01
7.219999999999999751e+00 5.116185806879540721e-01
7.240000000000000213e+00 5.092242142122112014e-01
7.259999999999999787e+00 5.068435533027153550e-01
7.280000000000000249e+00 5.044765306223826240e-01
7.299999999999999822e+00 5.021230501280909975e-01
7.320000000000000284e+00 4.997830456706687796e-01
7.339999999999999858e+00 4.974564217950646072e-01
7.360000000000000320e+00 4.951431135399667616e-01
7.379999999999999893e+00 4.928430260314889400e-01
7.400000000000000355e+00 4.905560954958468889e-01
7.419999999999999929e+00 4.882822276331645339e-01
7.440000000000000391e+00 4.860213598566042736e-01
7.459999999999999964e+00 4.837733984327259873e-01
7.480000000000000426e+00 4.815382819608151621e-01
7.500000000000000000e+00 4.793159172660828027e-01
7.520000000000000462e+00 4.771062441328872694e-01
7.540000000000000036e+00 4.749091699369381026e-01
7.560000000000000497e+00 4.727246356464124832e-01
7.580000000000000071e+00 4.705525491791590076e-01
7.600000000000000533e+00 4.683928526857338848e-01
7.620000000000000107e+00 4.662454546174389369e-01
7.640000000000000568e+00 4.641102983055994113e-01
7.660000000000000142e+00 4.619872927261026163e-01
7.679999999999999716e+00 4.598763823892757507e-01
7.700000000000000178e+00 4.577774767864221106e-01
7.719999999999999751e+00 4.556905216049479401e-01
7.740000000000000213e+00 4.536154268422675773e-01
7.759999999999999787e+00 4.515521393608281642e-01
7.780000000000000249e+00 4.495005696545456564e-01
7.799999999999999822e+00 4.474606657587466008e-01
7.820000000000000284e+00 4.454323386541371721e-01
7.839999999999999858e+00 4.434155375466554139e-01
7.860000000000000320e+00 4.414101738938138730e-01
7.879999999999999893e+00 4.394161980698015890e-01
