# Electrodo circular de radio 6 mm y espesor 710.0 um.
# Volumen de simulacion (convencion z,y,x):
# N: 1024 x 1024 x 1024 | voxelSize:  0.02mm x 0.02mm x 0.02mm | FOV:  20.48mm x 20.48mm x 20.48mm
# 
# z [mm]		 delta[ppm]
0.000000000000000000e+00 4.085809039123961206e+00
2.000000000000000042e-02 4.058054014216438965e+00
4.000000000000000083e-02 4.029794760831481248e+00
5.999999999999999778e-02 4.001061644573148612e+00
8.000000000000000167e-02 3.971884952766167043e+00
1.000000000000000056e-01 3.942294897086592087e+00
1.199999999999999956e-01 3.912321500956746245e+00
1.400000000000000133e-01 3.881994569275461604e+00
1.600000000000000033e-01 3.851343603697445772e+00
1.799999999999999933e-01 3.820397764183248501e+00
2.000000000000000111e-01 3.789185795289906622e+00
2.200000000000000011e-01 3.757735990335452581e+00
2.399999999999999911e-01 3.726076124858378691e+00
2.600000000000000089e-01 3.694233426594465186e+00
2.800000000000000266e-01 3.662234515944553515e+00
2.999999999999999889e-01 3.630105382810197234e+00
3.200000000000000067e-01 3.597871334044187908e+00
3.400000000000000244e-01 3.565556977710508502e+00
3.599999999999999867e-01 3.533186177532388950e+00
3.800000000000000044e-01 3.500782044783812275e+00
4.000000000000000222e-01 3.468366899600337838e+00
4.199999999999999845e-01 3.435962270460460655e+00
4.400000000000000022e-01 3.403588862084968802e+00
4.600000000000000200e-01 3.371266562253298016e+00
4.799999999999999822e-01 3.339014415877788355e+00
5.000000000000000000e-01 3.306850638733631609e+00
5.200000000000000178e-01 3.274792597170955055e+00
5.400000000000000355e-01 3.242856828206994280e+00
5.600000000000000533e-01 3.211059024252115979e+00
5.799999999999999600e-01 3.179414058921035569e+00
5.999999999999999778e-01 3.147935976081163378e+00
6.199999999999999956e-01 3.116638020682690247e+00
6.400000000000000133e-01 3.085532631410992543e+00
6.600000000000000311e-01 3.054631475810000385e+00
6.800000000000000488e-01 3.023945445810075849e+00
7.000000000000000666e-01 2.993484696421631508e+00
7.199999999999999734e-01 2.963258643433712258e+00
7.399999999999999911e-01 2.933276004979882057e+00
7.600000000000000089e-01 2.903544800736185039e+00
7.800000000000000266e-01 2.874072395704660554e+00
8.000000000000000444e-01 2.844865500296462457e+00
8.200000000000000622e-01 2.815930215734320452e+00
8.399999999999999689e-01 2.787272034465582138e+00
8.599999999999999867e-01 2.758895886649684659e+00
8.800000000000000044e-01 2.730806140418362116e+00
9.000000000000000222e-01 2.703006648983033333e+00
9.200000000000000400e-01 2.675500750327282073e+00
9.400000000000000577e-01 2.648291314539112040e+00
9.599999999999999645e-01 2.621380742594376478e+00
9.799999999999999822e-01 2.594771013586931296e+00
1.000000000000000000e+00 2.568463682326322495e+00
1.020000000000000018e+00 2.542459926203329168e+00
1.040000000000000036e+00 2.516760541390515193e+00
1.060000000000000053e+00 2.491365989139699533e+00
1.080000000000000071e+00 2.466276390428372878e+00
1.100000000000000089e+00 2.441491571538649374e+00
1.120000000000000107e+00 2.417011057045110878e+00
1.140000000000000124e+00 2.392834114570993265e+00
1.159999999999999920e+00 2.368959746054522864e+00
1.179999999999999938e+00 2.345386731617824960e+00
1.199999999999999956e+00 2.322113619087586400e+00
1.219999999999999973e+00 2.299138766945257650e+00
1.239999999999999991e+00 2.276460332106598372e+00
1.260000000000000009e+00 2.254076311948884914e+00
1.280000000000000027e+00 2.231984530380195064e+00
1.300000000000000044e+00 2.210182678960761038e+00
1.320000000000000062e+00 2.188668301310642939e+00
1.340000000000000080e+00 2.167438833358969141e+00
1.360000000000000098e+00 2.146491586154720022e+00
1.380000000000000115e+00 2.125823785289789214e+00
1.400000000000000133e+00 2.105432552186845552e+00
1.419999999999999929e+00 2.085314942750678302e+00
1.439999999999999947e+00 2.065467927215573596e+00
1.459999999999999964e+00 2.045888428084773114e+00
1.479999999999999982e+00 2.026573298622912134e+00
1.500000000000000000e+00 2.007519360146303278e+00
1.520000000000000018e+00 1.988723379249112577e+00
1.540000000000000036e+00 1.970182104507927301e+00
1.560000000000000053e+00 1.951892242529424504e+00
1.580000000000000071e+00 1.933850494131889031e+00
1.600000000000000089e+00 1.916053529301833258e+00
1.620000000000000107e+00 1.898498022913003513e+00
1.640000000000000124e+00 1.881180628676077937e+00
1.660000000000000142e+00 1.864098014452777674e+00
1.679999999999999938e+00 1.847246835280435651e+00
1.699999999999999956e+00 1.830623768335172041e+00
1.719999999999999973e+00 1.814225485108589719e+00
1.739999999999999991e+00 1.798048686069902979e+00
1.760000000000000009e+00 1.782090072068763797e+00
1.780000000000000027e+00 1.766346378741915579e+00
1.800000000000000044e+00 1.750814347211124833e+00
1.820000000000000062e+00 1.735490758275580747e+00
1.840000000000000080e+00 1.720372402470315976e+00
1.860000000000000098e+00 1.705456114081166374e+00
1.880000000000000115e+00 1.690738740624111447e+00
1.900000000000000133e+00 1.676217176715353974e+00
1.919999999999999929e+00 1.661888333028511022e+00
1.939999999999999947e+00 1.647749170048237177e+00
1.959999999999999964e+00 1.633796666557599586e+00
1.979999999999999982e+00 1.620027853299750298e+00
2.000000000000000000e+00 1.606439781044644022e+00
2.020000000000000018e+00 1.593029554179588470e+00
2.040000000000000036e+00 1.579794298400327035e+00
2.060000000000000053e+00 1.566731194247863002e+00
2.080000000000000071e+00 1.553837444466180884e+00
2.100000000000000089e+00 1.541110307499545806e+00
2.120000000000000107e+00 1.528547064555569657e+00
2.140000000000000124e+00 1.516145053074263060e+00
2.160000000000000142e+00 1.503901633532809923e+00
2.180000000000000160e+00 1.491814222894996877e+00
2.200000000000000178e+00 1.479880261190998247e+00
2.220000000000000195e+00 1.468097244953373570e+00
2.240000000000000213e+00 1.456462693603276959e+00
2.260000000000000231e+00 1.444974182877021063e+00
2.280000000000000249e+00 1.433629311047515120e+00
2.300000000000000266e+00 1.422425732343434612e+00
2.319999999999999840e+00 1.411361123033181064e+00
2.339999999999999858e+00 1.400433214836914964e+00
2.359999999999999876e+00 1.389639760898179865e+00
2.379999999999999893e+00 1.378978569187454095e+00
2.399999999999999911e+00 1.368447468385390220e+00
2.419999999999999929e+00 1.358044341275170375e+00
2.439999999999999947e+00 1.347767090559475411e+00
2.459999999999999964e+00 1.337613672237679019e+00
2.479999999999999982e+00 1.327582061377765354e+00
2.500000000000000000e+00 1.317670285473295122e+00
2.520000000000000018e+00 1.307876390189979698e+00
2.540000000000000036e+00 1.298198472696390660e+00
2.560000000000000053e+00 1.288634647404201194e+00
2.580000000000000071e+00 1.279183079265784562e+00
2.600000000000000089e+00 1.269841949525851055e+00
2.620000000000000107e+00 1.260609488978363890e+00
2.640000000000000124e+00 1.251483943746805938e+00
2.660000000000000142e+00 1.242463608492171412e+00
2.680000000000000160e+00 1.233546792238051637e+00
2.700000000000000178e+00 1.224731851520941106e+00
2.720000000000000195e+00 1.216017156275934097e+00
2.740000000000000213e+00 1.207401122920122472e+00
2.760000000000000231e+00 1.198882180313807000e+00
2.780000000000000249e+00 1.190458802767376145e+00
2.800000000000000266e+00 1.182129476092675047e+00
2.819999999999999840e+00 1.173892730523413030e+00
2.839999999999999858e+00 1.165747106870564043e+00
2.859999999999999876e+00 1.157691189346110594e+00
2.879999999999999893e+00 1.149723571836156033e+00
2.899999999999999911e+00 1.141842890617575268e+00
2.919999999999999929e+00 1.134047790761884222e+00
2.939999999999999947e+00 1.126336958734180715e+00
2.959999999999999964e+00 1.118709088940684993e+00
2.979999999999999982e+00 1.111162916199259332e+00
3.000000000000000000e+00 1.103697182442928915e+00
3.020000000000000018e+00 1.096310669051165032e+00
3.040000000000000036e+00 1.089002163721652927e+00
3.060000000000000053e+00 1.081770492651424664e+00
3.080000000000000071e+00 1.074614487588638312e+00
3.100000000000000089e+00 1.067533017852626998e+00
3.120000000000000107e+00 1.060524957577393623e+00
3.140000000000000124e+00 1.053589217559639080e+00
3.160000000000000142e+00 1.046724712705213944e+00
3.180000000000000160e+00 1.039930393694197264e+00
3.200000000000000178e+00 1.033205214641528924e+00
3.220000000000000195e+00 1.026548164568253041e+00
3.240000000000000213e+00 1.019958235287115933e+00
3.260000000000000231e+00 1.013434452669119024e+00
3.280000000000000249e+00 1.006975844764917083e+00
3.300000000000000266e+00 1.000581472855871068e+00
3.320000000000000284e+00 9.942503998216427608e-01
3.339999999999999858e+00 9.879817209650498810e-01
3.359999999999999876e+00 9.817745326362941061e-01
3.379999999999999893e+00 9.756279628209629795e-01
3.399999999999999911e+00 9.695411400309594807e-01
3.419999999999999929e+00 9.635132236451124932e-01
3.439999999999999947e+00 9.575433730768962981e-01
3.459999999999999964e+00 9.516307778572127285e-01
3.479999999999999982e+00 9.457746270886249196e-01
3.500000000000000000e+00 9.399741392599946233e-01
3.520000000000000018e+00 9.342285319969922952e-01
3.540000000000000036e+00 9.285370515983853990e-01
3.560000000000000053e+00 9.228989430922484027e-01
3.580000000000000071e+00 9.173134794838083694e-01
3.600000000000000089e+00 9.117799321268212909e-01
3.620000000000000107e+00 9.062975996730335826e-01
3.640000000000000124e+00 9.008657787678365780e-01
3.660000000000000142e+00 8.954837926915277801e-01
3.680000000000000160e+00 8.901509623884138467e-01
3.700000000000000178e+00 8.848666347901711360e-01
3.720000000000000195e+00 8.796301541872623142e-01
3.740000000000000213e+00 8.744408902248470561e-01
3.760000000000000231e+00 8.692982096253827340e-01
3.780000000000000249e+00 8.642015038476851263e-01
3.800000000000000266e+00 8.591501611692893281e-01
3.820000000000000284e+00 8.541435939993871074e-01
3.839999999999999858e+00 8.491812113295728048e-01
3.859999999999999876e+00 8.442624456915247544e-01
3.879999999999999893e+00 8.393867259844332018e-01
3.899999999999999911e+00 8.345535040684632921e-01
3.919999999999999929e+00 8.297622279772044473e-01
3.939999999999999947e+00 8.250123681380799878e-01
3.959999999999999964e+00 8.203033909778623123e-01
3.979999999999999982e+00 8.156347847613264479e-01
4.000000000000000000e+00 8.110060335979433210e-01
4.020000000000000462e+00 8.064166428902180828e-01
4.040000000000000036e+00 8.018661137493329205e-01
4.060000000000000497e+00 7.973539680447883082e-01
4.080000000000000071e+00 7.928797232368212100e-01
4.099999999999999645e+00 7.884429170191009639e-01
4.120000000000000107e+00 7.840430825754420852e-01
4.139999999999999680e+00 7.796797728074242873e-01
4.160000000000000142e+00 7.753525360230232311e-01
4.179999999999999716e+00 7.710609397411702925e-01
4.200000000000000178e+00 7.668045468195582304e-01
4.219999999999999751e+00 7.625829388283302812e-01
4.240000000000000213e+00 7.583956926244034280e-01
4.259999999999999787e+00 7.542424032865876482e-01
4.280000000000000249e+00 7.501226611434712588e-01
4.299999999999999822e+00 7.460360742624029262e-01
4.320000000000000284e+00 7.419822459380542856e-01
4.339999999999999858e+00 7.379607967278434266e-01
4.360000000000000320e+00 7.339713424079779003e-01
4.379999999999999893e+00 7.300135155480433902e-01
4.400000000000000355e+00 7.260869439413750737e-01
4.419999999999999929e+00 7.221912717116759639e-01
4.440000000000000391e+00 7.183261382242880355e-01
4.459999999999999964e+00 7.144911987178110824e-01
4.480000000000000426e+00 7.106861037029381656e-01
4.500000000000000000e+00 7.069105191121550780e-01
4.520000000000000462e+00 7.031641061924965852e-01
4.540000000000000036e+00 6.994465411665772292e-01
4.560000000000000497e+00 6.957574956256743492e-01
4.580000000000000071e+00 6.920966556954468718e-01
4.600000000000000533e+00 6.884637029354875315e-01
4.620000000000000107e+00 6.848583330031980942e-01
4.639999999999999680e+00 6.812802370660328011e-01
4.660000000000000142e+00 6.777291199571268132e-01
4.679999999999999716e+00 6.742046821061407069e-01
4.700000000000000178e+00 6.707066371803689364e-01
4.719999999999999751e+00 6.672346945401935736e-01
4.740000000000000213e+00 6.637885763594937316e-01
4.759999999999999787e+00 6.603680006114365231e-01
4.780000000000000249e+00 6.569726976621205194e-01
4.799999999999999822e+00 6.536023937925196092e-01
4.820000000000000284e+00 6.502568272594194676e-01
4.839999999999999858e+00 6.469357323590290143e-01
4.860000000000000320e+00 6.436388549493649025e-01
4.879999999999999893e+00 6.403659370611612944e-01
4.900000000000000355e+00 6.371167318759624054e-01
4.919999999999999929e+00 6.338909888896746558e-01
4.940000000000000391e+00 6.306884683407176784e-01
4.959999999999999964e+00 6.275089269316774798e-01
4.980000000000000426e+00 6.243521317019613548e-01
5.000000000000000000e+00 6.212178463127290273e-01
5.020000000000000462e+00 6.181058443586130435e-01
5.040000000000000036e+00 6.150158962211853542e-01
5.060000000000000497e+00 6.119477818143972403e-01
5.080000000000000071e+00 6.089012780115958812e-01
5.100000000000000533e+00 6.058761708193989293e-01
5.120000000000000107e+00 6.028722433833937355e-01
5.139999999999999680e+00 5.998892875852589457e-01
5.160000000000000142e+00 5.969270926320032755e-01
5.179999999999999716e+00 5.939854560712330978e-01
5.200000000000000178e+00 5.910641729689023460e-01
5.219999999999999751e+00 5.881630463377038875e-01
5.240000000000000213e+00 5.852818769080514461e-01
5.259999999999999787e+00 5.824204729646376144e-01
5.280000000000000249e+00 5.795786407154878139e-01
5.299999999999999822e+00 5.767561935318212818e-01
5.320000000000000284e+00 5.739529429197509636e-01
5.339999999999999858e+00 5.711687071586513120e-01
5.360000000000000320e+00 5.684033028802076837e-01
5.379999999999999893e+00 5.656565531005517400e-01
5.400000000000000355e+00 5.629282794111470922e-01
5.419999999999999929e+00 5.602183093999969499e-01
5.440000000000000391e+00 5.575264694589684433e-01
5.459999999999999964e+00 5.548525915894602090e-01
5.480000000000000426e+00 5.521965068305313418e-01
5.500000000000000000e+00 5.495580514444656783e-01
5.520000000000000462e+00 5.469370609701957875e-01
5.540000000000000036e+00 5.443333757842678811e-01
5.560000000000000497e+00 5.417468357838284287e-01
5.580000000000000071e+00 5.391772853185263781e-01
5.600000000000000533e+00 5.366245685074766403e-01
5.620000000000000107e+00 5.340885335376842624e-01
5.639999999999999680e+00 5.315690286191790959e-01
5.660000000000000142e+00 5.290659056455910836e-01
5.679999999999999716e+00 5.265790167917805409e-01
5.700000000000000178e+00 5.241082175322454573e-01
5.719999999999999751e+00 5.216533638853699806e-01
5.740000000000000213e+00 5.192143147853607310e-01
5.759999999999999787e+00 5.167909299773849607e-01
5.780000000000000249e+00 5.143830717387779528e-01
5.799999999999999822e+00 5.119906034291364927e-01
5.820000000000000284e+00 5.096133905565697342e-01
5.839999999999999858e+00 5.072512999869499550e-01
5.860000000000000320e+00 5.049042003510108012e-01
5.879999999999999893e+00 5.025719619167887675e-01
5.900000000000000355e+00 5.002544563333717331e-01
5.919999999999999929e+00 4.979515571707091581e-01
5.940000000000000391e+00 4.956631389958559564e-01
5.959999999999999964e+00 4.933890785841394400e-01
5.980000000000000426e+00 4.911292533237453517e-01
6.000000000000000000e+00 4.888835431024061151e-01
6.020000000000000462e+00 4.866518280361890603e-01
6.040000000000000036e+00 4.844339910356739165e-01
6.060000000000000497e+00 4.822299148548182535e-01
6.080000000000000071e+00 4.800394853407769502e-01
6.100000000000000533e+00 4.778625877987156545e-01
6.120000000000000107e+00 4.756991109292387776e-01
6.140000000000000568e+00 4.735489425050321000e-01
6.160000000000000142e+00 4.714119740000486947e-01
6.179999999999999716e+00 4.692880955738596982e-01
6.200000000000000178e+00 4.671772013965758696e-01
6.219999999999999751e+00 4.650791839367635627e-01
6.240000000000000213e+00 4.629939399862857963e-01
6.259999999999999787e+00 4.609213642476445161e-01
6.280000000000000249e+00 4.588613560627313182e-01
6.299999999999999822e+00 4.568138122954432112e-01
6.320000000000000284e+00 4.547786347685515707e-01
6.339999999999999858e+00 4.527557224374209599e-01
6.360000000000000320e+00 4.507449795390278124e-01
6.379999999999999893e+00 4.487463070525943287e-01
6.400000000000000355e+00 4.467596115650083743e-01
6.419999999999999929e+00 4.447847960141557699e-01
6.440000000000000391e+00 4.428217692748245282e-01
6.459999999999999964e+00 4.408704361805014238e-01
6.480000000000000426e+00 4.389307078340687340e-01
6.500000000000000000e+00 4.370024909037857896e-01
6.520000000000000462e+00 4.350856986629307865e-01
6.540000000000000036e+00 4.331802395556653695e-01
6.560000000000000497e+00 4.312860289700024552e-01
6.580000000000000071e+00 4.294029770692079362e-01
6.600000000000000533e+00 4.275310013023276290e-01
6.620000000000000107e+00 4.256700134967321691e-01
6.640000000000000568e+00 4.238199331106765610e-01
6.660000000000000142e+00 4.219806735825549771e-01
6.679999999999999716e+00 4.201521563298203366e-01
6.700000000000000178e+00 4.183342963504663170e-01
6.719999999999999751e+00 4.165270169728764182e-01
6.740000000000000213e+00 4.147302347050039195e-01
6.759999999999999787e+00 4.129438747395704490e-01
6.780000000000000249e+00 4.111678550463608861e-01
6.799999999999999822e+00 4.094021026374665695e-01
6.820000000000000284e+00 4.076465368980321524e-01
6.839999999999999858e+00 4.059010866161080755e-01
6.860000000000000320e+00 4.041656725471162170e-01
6.879999999999999893e+00 4.024402252131454860e-01
6.900000000000000355e+00 4.007246666963679149e-01
6.919999999999999929e+00 3.990189292124420306e-01
6.940000000000000391e+00 3.973229361280219973e-01
6.959999999999999964e+00 3.956366213132557208e-01
6.980000000000000426e+00 3.939599093784580952e-01
7.000000000000000000e+00 3.922927358105344764e-01
7.020000000000000462e+00 3.906350264237982706e-01
7.040000000000000036e+00 3.889867182854685468e-01
7.060000000000000497e+00 3.873477383755432046e-01
7.080000000000000071e+00 3.857180253063586250e-01
7.100000000000000533e+00 3.840975071863449442e-01
7.120000000000000107e+00 3.824861241389670430e-01
7.140000000000000568e+00 3.808838053650860922e-01
7.160000000000000142e+00 3.792904924664678434e-01
7.179999999999999716e+00 3.777061157013789083e-01
7.200000000000000178e+00 3.761306181181755526e-01
7.219999999999999751e+00 3.745639309986709686e-01
7.240000000000000213e+00 3.730059988071889321e-01
7.259999999999999787e+00 3.714567538161248073e-01
7.280000000000000249e+00 3.699161418761818809e-01
7.299999999999999822e+00 3.683840962184589118e-01
7.320000000000000284e+00 3.668605640514658872e-01
7.339999999999999858e+00 3.653454795339489136e-01
7.360000000000000320e+00 3.638387912046225359e-01
7.379999999999999893e+00 3.623404341198340206e-01
7.400000000000000355e+00 3.608503581218447942e-01
7.419999999999999929e+00 3.593684991353015556e-01
7.440000000000000391e+00 3.578948082802618780e-01
7.459999999999999964e+00 3.564292223213252342e-01
7.480000000000000426e+00 3.549716936314727400e-01
7.500000000000000000e+00 3.535221597875872757e-01
7.520000000000000462e+00 3.520805743915476627e-01
7.540000000000000036e+00 3.506468758057467716e-01
7.560000000000000497e+00 3.492210188377643520e-01
7.580000000000000071e+00 3.478029426093303678e-01
7.600000000000000533e+00 3.463926031113170323e-01
7.620000000000000107e+00 3.449899401994704351e-01
7.640000000000000568e+00 3.435949110263219475e-01
7.660000000000000142e+00 3.422074561568611006e-01
7.679999999999999716e+00 3.408275338843846924e-01
7.700000000000000178e+00 3.394550854591371625e-01
7.719999999999999751e+00 3.380900702950139225e-01
7.740000000000000213e+00 3.367324303040304390e-01
7.759999999999999787e+00 3.353821260012093686e-01
7.780000000000000249e+00 3.340390999375901226e-01
7.799999999999999822e+00 3.327033137105269156e-01
7.820000000000000284e+00 3.313747104877904914e-01
7.839999999999999858e+00 3.300532529309281871e-01
7.860000000000000320e+00 3.287388848028373611e-01
7.879999999999999893e+00 3.274315698117596374e-01
