# Electrodo circular de radio 6 mm y espesor 710.0 um.
# Volumen de simulacion (convencion z,y,x):
# N: 1024 x 1024 x 1024 | voxelSize:  0.02mm x 0.02mm x 0.02mm | FOV:  20.48mm x 20.48mm x 20.48mm
# 
# z [mm]		 delta[ppm]
0.000000000000000000e+00 2.364771326218729985e+00
2.000000000000000042e-02 2.362387945376997145e+00
4.000000000000000083e-02 2.359931831065047447e+00
5.999999999999999778e-02 2.357403382439709816e+00
8.000000000000000167e-02 2.354802996935255077e+00
1.000000000000000056e-01 2.352131081792732115e+00
1.199999999999999956e-01 2.349388053146133082e+00
1.400000000000000133e-01 2.346574338792406067e+00
1.600000000000000033e-01 2.343690374677678268e+00
1.799999999999999933e-01 2.340736608318202183e+00
2.000000000000000111e-01 2.337713494881613396e+00
2.200000000000000011e-01 2.334621500887447798e+00
2.399999999999999911e-01 2.331461100092071526e+00
2.600000000000000089e-01 2.328232777373449913e+00
2.800000000000000266e-01 2.324937024421187104e+00
2.999999999999999889e-01 2.321574343800118623e+00
3.200000000000000067e-01 2.318145244458083898e+00
3.400000000000000244e-01 2.314650245963173703e+00
3.599999999999999867e-01 2.311089873828878538e+00
3.800000000000000044e-01 2.307464663923101789e+00
4.000000000000000222e-01 2.303775157616553049e+00
4.199999999999999845e-01 2.300021906360630641e+00
4.400000000000000022e-01 2.296205466660655059e+00
4.600000000000000200e-01 2.292326404820367980e+00
4.799999999999999822e-01 2.288385291744606587e+00
5.000000000000000000e-01 2.284382707847646188e+00
5.200000000000000178e-01 2.280319237687874256e+00
5.400000000000000355e-01 2.276195475037436022e+00
5.600000000000000533e-01 2.272012017353125746e+00
5.799999999999999600e-01 2.267769471004502435e+00
5.999999999999999778e-01 2.263468445584068789e+00
6.199999999999999956e-01 2.259109559291076597e+00
6.400000000000000133e-01 2.254693433085145582e+00
6.600000000000000311e-01 2.250220696222750227e+00
6.800000000000000488e-01 2.245691980257747744e+00
7.000000000000000666e-01 2.241107924727499423e+00
7.199999999999999734e-01 2.236469171004533685e+00
7.399999999999999911e-01 2.231776368129103627e+00
7.600000000000000089e-01 2.227030166515719500e+00
7.800000000000000266e-01 2.222231223928891719e+00
8.000000000000000444e-01 2.217380199048856859e+00
8.200000000000000622e-01 2.212477757587091087e+00
8.399999999999999689e-01 2.207524565715224707e+00
8.599999999999999867e-01 2.202521296316834576e+00
8.800000000000000044e-01 2.197468622284021400e+00
9.000000000000000222e-01 2.192367222901835166e+00
9.200000000000000400e-01 2.187217777016722930e+00
9.400000000000000577e-01 2.182020969549903544e+00
9.599999999999999645e-01 2.176777484542256058e+00
9.799999999999999822e-01 2.171488011792801487e+00
1.000000000000000000e+00 2.166153239784465612e+00
1.020000000000000018e+00 2.160773862443718052e+00
1.040000000000000036e+00 2.155350571951936800e+00
1.060000000000000053e+00 2.149884065622170048e+00
1.080000000000000071e+00 2.144375038600684125e+00
1.100000000000000089e+00 2.138824190856690066e+00
1.120000000000000107e+00 2.133232219778969707e+00
1.140000000000000124e+00 2.127599827274284650e+00
1.159999999999999920e+00 2.121927712263843357e+00
1.179999999999999938e+00 2.116216577886035122e+00
1.199999999999999956e+00 2.110467123897749708e+00
1.219999999999999973e+00 2.104680053976956344e+00
1.239999999999999991e+00 2.098856068033796873e+00
1.260000000000000009e+00 2.092995869608440085e+00
1.280000000000000027e+00 2.087100158097097147e+00
1.300000000000000044e+00 2.081169636240451482e+00
1.320000000000000062e+00 2.075205002269691068e+00
1.340000000000000080e+00 2.069206957480730580e+00
1.360000000000000098e+00 2.063176198305530118e+00
1.380000000000000115e+00 2.057113423967222410e+00
1.400000000000000133e+00 2.051019328481947568e+00
1.419999999999999929e+00 2.044894608389896007e+00
1.439999999999999947e+00 2.038739954693069567e+00
1.459999999999999964e+00 2.032556060657145558e+00
1.479999999999999982e+00 2.026343613690537726e+00
1.500000000000000000e+00 2.020103303211894463e+00
1.520000000000000018e+00 2.013835812476003628e+00
1.540000000000000036e+00 2.007541826501613169e+00
1.560000000000000053e+00 2.001222023849698939e+00
1.580000000000000071e+00 1.994877084606250017e+00
1.600000000000000089e+00 1.988507682118529463e+00
1.620000000000000107e+00 1.982114491027352488e+00
1.640000000000000124e+00 1.975698178966988516e+00
1.660000000000000142e+00 1.969259414641362005e+00
1.679999999999999938e+00 1.962798859493369630e+00
1.699999999999999956e+00 1.956317175819343612e+00
1.719999999999999973e+00 1.949815018413555867e+00
1.739999999999999991e+00 1.943293042715199315e+00
1.760000000000000009e+00 1.936751896433970055e+00
1.780000000000000027e+00 1.930192227723715570e+00
1.800000000000000044e+00 1.923614676795001976e+00
1.820000000000000062e+00 1.917019884109510741e+00
1.840000000000000080e+00 1.910408481985595097e+00
1.860000000000000098e+00 1.903781102807409420e+00
1.880000000000000115e+00 1.897138370629470883e+00
1.900000000000000133e+00 1.890480909394449904e+00
1.919999999999999929e+00 1.883809334542829728e+00
1.939999999999999947e+00 1.877124261233200864e+00
1.959999999999999964e+00 1.870426295963161456e+00
1.979999999999999982e+00 1.863716044785840076e+00
2.000000000000000000e+00 1.856994104948281210e+00
2.020000000000000018e+00 1.850261073097877906e+00
2.040000000000000036e+00 1.843517536944471180e+00
2.060000000000000053e+00 1.836764083450302731e+00
2.080000000000000071e+00 1.830001290522152990e+00
2.100000000000000089e+00 1.823229735178341082e+00
2.120000000000000107e+00 1.816449985277273527e+00
2.140000000000000124e+00 1.809662607654930477e+00
2.160000000000000142e+00 1.802868159896263256e+00
2.180000000000000160e+00 1.796067198436552603e+00
2.200000000000000178e+00 1.789260270382125873e+00
2.220000000000000195e+00 1.782447921568900417e+00
2.240000000000000213e+00 1.775630688438960991e+00
2.260000000000000231e+00 1.768809106049541446e+00
2.280000000000000249e+00 1.761983700012027532e+00
2.300000000000000266e+00 1.755154994444558358e+00
2.319999999999999840e+00 1.748323503980113935e+00
2.339999999999999858e+00 1.741489741655843027e+00
2.359999999999999876e+00 1.734654210996912971e+00
2.379999999999999893e+00 1.727817413835637472e+00
2.399999999999999911e+00 1.720979842477813770e+00
2.419999999999999929e+00 1.714141987444648407e+00
2.439999999999999947e+00 1.707304329728382974e+00
2.459999999999999964e+00 1.700467348449940630e+00
2.479999999999999982e+00 1.693631513210678285e+00
2.500000000000000000e+00 1.686797291658650222e+00
2.520000000000000018e+00 1.679965141943362106e+00
2.540000000000000036e+00 1.673135520183477443e+00
2.560000000000000053e+00 1.666308873031514537e+00
2.580000000000000071e+00 1.659485645035765344e+00
2.600000000000000089e+00 1.652666271321911795e+00
2.620000000000000107e+00 1.645851184841885750e+00
2.640000000000000124e+00 1.639040809179437952e+00
2.660000000000000142e+00 1.632235565678601397e+00
2.680000000000000160e+00 1.625435866380293914e+00
2.700000000000000178e+00 1.618642121023009306e+00
2.720000000000000195e+00 1.611854730117566525e+00
2.740000000000000213e+00 1.605074091812601189e+00
2.760000000000000231e+00 1.598300595114652278e+00
2.780000000000000249e+00 1.591534626610963787e+00
2.800000000000000266e+00 1.584776563842110297e+00
2.819999999999999840e+00 1.578026781874620976e+00
2.839999999999999858e+00 1.571285646833381122e+00
2.859999999999999876e+00 1.564553522316521894e+00
2.879999999999999893e+00 1.557830763094907534e+00
2.899999999999999911e+00 1.551117721361668478e+00
2.919999999999999929e+00 1.544414740606152359e+00
2.939999999999999947e+00 1.537722161690423084e+00
2.959999999999999964e+00 1.531040316905066812e+00
2.979999999999999982e+00 1.524369535864997793e+00
3.000000000000000000e+00 1.517710139754530507e+00
3.020000000000000018e+00 1.511062447034773770e+00
3.040000000000000036e+00 1.504426767885441718e+00
3.060000000000000053e+00 1.497803409716060408e+00
3.080000000000000071e+00 1.491192671812060278e+00
3.100000000000000089e+00 1.484594850641974606e+00
3.120000000000000107e+00 1.478010234715370963e+00
3.140000000000000124e+00 1.471439109678210233e+00
3.160000000000000142e+00 1.464881753390223862e+00
3.180000000000000160e+00 1.458338440800539315e+00
3.200000000000000178e+00 1.451809439252149003e+00
3.220000000000000195e+00 1.445295013129915596e+00
3.240000000000000213e+00 1.438795419399783615e+00
3.260000000000000231e+00 1.432310912021221627e+00
3.280000000000000249e+00 1.425841737728923420e+00
3.300000000000000266e+00 1.419388140201686577e+00
3.320000000000000284e+00 1.412950356094370141e+00
3.339999999999999858e+00 1.406528618955195098e+00
3.359999999999999876e+00 1.400123155515760720e+00
3.379999999999999893e+00 1.393734189348722730e+00
3.399999999999999911e+00 1.387361937423716718e+00
3.419999999999999929e+00 1.381006613497319568e+00
3.439999999999999947e+00 1.374668424942751432e+00
3.459999999999999964e+00 1.368347575864051757e+00
3.479999999999999982e+00 1.362044264207450617e+00
3.500000000000000000e+00 1.355758684591592989e+00
3.520000000000000018e+00 1.349491025708570602e+00
3.540000000000000036e+00 1.343241472862034547e+00
3.560000000000000053e+00 1.337010205665850382e+00
3.580000000000000071e+00 1.330797400281879650e+00
3.600000000000000089e+00 1.324603227424328677e+00
3.620000000000000107e+00 1.318427854288976686e+00
3.640000000000000124e+00 1.312271442871235427e+00
3.660000000000000142e+00 1.306134151578586255e+00
3.680000000000000160e+00 1.300016133870474322e+00
3.700000000000000178e+00 1.293917539545632378e+00
3.720000000000000195e+00 1.287838513711964117e+00
3.740000000000000213e+00 1.281779197740441134e+00
3.760000000000000231e+00 1.275739728573132004e+00
3.780000000000000249e+00 1.269720239335349943e+00
3.800000000000000266e+00 1.263720858990019069e+00
3.820000000000000284e+00 1.257741712599688588e+00
3.839999999999999858e+00 1.251782921335510723e+00
3.859999999999999876e+00 1.245844602380710597e+00
3.879999999999999893e+00 1.239926869302437007e+00
3.899999999999999911e+00 1.234029831588256299e+00
3.919999999999999929e+00 1.228153595389216868e+00
3.939999999999999947e+00 1.222298262680901138e+00
3.959999999999999964e+00 1.216463932386034008e+00
3.979999999999999982e+00 1.210650699151605503e+00
4.000000000000000000e+00 1.204858654859443989e+00
4.020000000000000462e+00 1.199087887010868325e+00
4.040000000000000036e+00 1.193338480633626242e+00
4.060000000000000497e+00 1.187610516265558358e+00
4.080000000000000071e+00 1.181904072266354966e+00
4.099999999999999645e+00 1.176219222391667207e+00
4.120000000000000107e+00 1.170556038518146602e+00
4.139999999999999680e+00 1.164914587799389611e+00
4.160000000000000142e+00 1.159294935812836380e+00
4.179999999999999716e+00 1.153697143288901161e+00
4.200000000000000178e+00 1.148121269688253232e+00
4.219999999999999751e+00 1.142567369495491869e+00
4.240000000000000213e+00 1.137035496235434318e+00
4.259999999999999787e+00 1.131525698322629614e+00
4.280000000000000249e+00 1.126038023525248954e+00
4.299999999999999822e+00 1.120572514361739769e+00
4.320000000000000284e+00 1.115129213021021970e+00
4.339999999999999858e+00 1.109708156297483539e+00
4.360000000000000320e+00 1.104309380976205679e+00
4.379999999999999893e+00 1.098932918297513162e+00
4.400000000000000355e+00 1.093578799815957625e+00
4.419999999999999929e+00 1.088247051385645259e+00
4.440000000000000391e+00 1.082937699501706152e+00
4.459999999999999964e+00 1.077650764797565719e+00
4.480000000000000426e+00 1.072386268877758564e+00
4.500000000000000000e+00 1.067144227318208793e+00
4.520000000000000462e+00 1.061924656999248429e+00
4.540000000000000036e+00 1.056727568600025924e+00
4.560000000000000497e+00 1.051552974440593147e+00
4.580000000000000071e+00 1.046400880461499039e+00
4.600000000000000533e+00 1.041271294583871798e+00
4.620000000000000107e+00 1.036164218165206652e+00
4.639999999999999680e+00 1.031079654886437602e+00
4.660000000000000142e+00 1.026017601674900082e+00
4.679999999999999716e+00 1.020978058127362198e+00
4.700000000000000178e+00 1.015961016891127278e+00
4.719999999999999751e+00 1.010966473632097795e+00
4.740000000000000213e+00 1.005994416864905316e+00
4.759999999999999787e+00 1.001044838475084742e+00
4.780000000000000249e+00 9.961177229891088336e-01
4.799999999999999822e+00 9.912130586598177917e-01
4.820000000000000284e+00 9.863308261671964727e-01
4.839999999999999858e+00 9.814710102761964317e-01
4.860000000000000320e+00 9.766335879590726243e-01
4.879999999999999893e+00 9.718185406348066602e-01
4.900000000000000355e+00 9.670258417037724818e-01
4.919999999999999929e+00 9.622554693780021040e-01
4.940000000000000391e+00 9.575073936188807089e-01
4.959999999999999964e+00 9.527815895675776359e-01
4.980000000000000426e+00 9.480780238764545675e-01
5.000000000000000000e+00 9.433966687489726555e-01
5.020000000000000462e+00 9.387374876554566150e-01
5.040000000000000036e+00 9.341004499918781345e-01
5.060000000000000497e+00 9.294855161705676272e-01
5.080000000000000071e+00 9.248926529072805103e-01
5.100000000000000533e+00 9.203218176774178305e-01
5.120000000000000107e+00 9.157729746408665994e-01
5.139999999999999680e+00 9.112460784542206760e-01
5.160000000000000142e+00 9.067410908429092142e-01
5.179999999999999716e+00 9.022579637598856506e-01
5.200000000000000178e+00 8.977966566146222682e-01
5.219999999999999751e+00 8.933571187686798476e-01
5.240000000000000213e+00 8.889393074311733312e-01
5.259999999999999787e+00 8.845431694815821810e-01
5.280000000000000249e+00 8.801686600413781703e-01
5.299999999999999822e+00 8.758157236144028523e-01
5.320000000000000284e+00 8.714843133443378465e-01
5.339999999999999858e+00 8.671743714629300825e-01
5.360000000000000320e+00 8.628858492431011884e-01
5.379999999999999893e+00 8.586186867452102467e-01
5.400000000000000355e+00 8.543728334756305332e-01
5.419999999999999929e+00 8.501482274212118773e-01
5.440000000000000391e+00 8.459448164232147294e-01
5.459999999999999964e+00 8.417625364900868101e-01
5.480000000000000426e+00 8.376013338966594723e-01
5.500000000000000000e+00 8.334611427653083604e-01
5.520000000000000462e+00 8.293419079004173966e-01
5.540000000000000036e+00 8.252435616279012454e-01
5.560000000000000497e+00 8.211660473750002076e-01
5.580000000000000071e+00 8.171092957580953220e-01
5.600000000000000533e+00 8.130732489179298694e-01
5.620000000000000107e+00 8.090578358456400609e-01
5.639999999999999680e+00 8.050629974835366021e-01
5.660000000000000142e+00 8.010886612791648931e-01
5.679999999999999716e+00 7.971347670619088888e-01
5.700000000000000178e+00 7.932012408148192417e-01
5.719999999999999751e+00 7.892880213373313358e-01
5.740000000000000213e+00 7.853950332245743793e-01
5.759999999999999787e+00 7.815222143265384558e-01
5.780000000000000249e+00 7.776694879245091840e-01
5.799999999999999822e+00 7.738367909971077818e-01
5.820000000000000284e+00 7.700240455834184150e-01
5.839999999999999858e+00 7.662311878663774500e-01
5.860000000000000320e+00 7.624581387121036613e-01
5.879999999999999893e+00 7.587048335811956701e-01
5.900000000000000355e+00 7.549711922336942438e-01
5.919999999999999929e+00 7.512571494789022086e-01
5.940000000000000391e+00 7.475626240353631102e-01
5.959999999999999964e+00 7.438875501298835013e-01
5.980000000000000426e+00 7.402318455018176424e-01
6.000000000000000000e+00 7.365954438620694322e-01
6.020000000000000462e+00 7.329782620309049923e-01
6.040000000000000036e+00 7.293802332677543632e-01
6.060000000000000497e+00 7.258012735317259656e-01
6.080000000000000071e+00 7.222413156931040135e-01
6.100000000000000533e+00 7.187002749056290440e-01
6.120000000000000107e+00 7.151780837107069022e-01
6.140000000000000568e+00 7.116746565104411504e-01
6.160000000000000142e+00 7.081899255755925715e-01
6.179999999999999716e+00 7.047238046083214025e-01
6.200000000000000178e+00 7.012762256650266757e-01
6.219999999999999751e+00 6.978471017976205504e-01
6.240000000000000213e+00 6.944363649024909435e-01
6.259999999999999787e+00 6.910439274290821610e-01
6.280000000000000249e+00 6.876697211662468057e-01
6.299999999999999822e+00 6.843136580068205355e-01
6.320000000000000284e+00 6.809756696827720113e-01
6.339999999999999858e+00 6.776556675743606872e-01
6.360000000000000320e+00 6.743535834055298661e-01
6.379999999999999893e+00 6.710693280861854682e-01
6.400000000000000355e+00 6.678028333793739613e-01
6.419999999999999929e+00 6.645540097651063682e-01
6.440000000000000391e+00 6.613227890909697537e-01
6.459999999999999964e+00 6.581090814458332439e-01
6.480000000000000426e+00 6.549128188056086985e-01
6.500000000000000000e+00 6.517339109051056845e-01
6.520000000000000462e+00 6.485722898907472223e-01
6.540000000000000036e+00 6.454278651787330734e-01
6.560000000000000497e+00 6.423005691266204797e-01
6.580000000000000071e+00 6.391903108658770760e-01
6.600000000000000533e+00 6.360970230043094809e-01
6.620000000000000107e+00 6.330206144209751251e-01
6.640000000000000568e+00 6.299610180115671199e-01
6.660000000000000142e+00 6.269181424335720232e-01
6.679999999999999716e+00 6.238919209067727012e-01
6.700000000000000178e+00 6.208822618964556783e-01
6.719999999999999751e+00 6.178890989813143886e-01
6.740000000000000213e+00 6.149123404623934031e-01
6.759999999999999787e+00 6.119519203107673944e-01
6.780000000000000249e+00 6.090077466898187186e-01
6.799999999999999822e+00 6.060797539951643387e-01
6.820000000000000284e+00 6.031678502777636508e-01
6.839999999999999858e+00 6.002719703886726377e-01
6.860000000000000320e+00 5.973920222903704724e-01
6.879999999999999893e+00 5.945279413190155404e-01
6.900000000000000355e+00 5.916796353712874268e-01
6.919999999999999929e+00 5.888470402969222528e-01
6.940000000000000391e+00 5.860300639482582952e-01
6.959999999999999964e+00 5.832286427159185660e-01
6.980000000000000426e+00 5.804426844281729281e-01
7.000000000000000000e+00 5.776721260427400972e-01
7.020000000000000462e+00 5.749168753829305700e-01
7.040000000000000036e+00 5.721768699986816697e-01
7.060000000000000497e+00 5.694520177263431293e-01
7.080000000000000071e+00 5.667422567321410698e-01
7.100000000000000533e+00 5.640474948823845924e-01
7.120000000000000107e+00 5.613676709826502798e-01
7.140000000000000568e+00 5.587026929450698010e-01
7.160000000000000142e+00 5.560525002366604186e-01
7.179999999999999716e+00 5.534170008302221611e-01
7.200000000000000178e+00 5.507961348753485087e-01
7.219999999999999751e+00 5.481898104193790866e-01
7.240000000000000213e+00 5.455979683147101911e-01
7.259999999999999787e+00 5.430205166961292740e-01
7.280000000000000249e+00 5.404573971381796405e-01
7.299999999999999822e+00 5.379085178750827589e-01
7.320000000000000284e+00 5.353738212220252590e-01
7.339999999999999858e+00 5.328532155237637458e-01
7.360000000000000320e+00 5.303466438537980387e-01
7.379999999999999893e+00 5.278540146776535824e-01
7.400000000000000355e+00 5.253752718440197755e-01
7.419999999999999929e+00 5.229103239485894949e-01
7.440000000000000391e+00 5.204591156313669309e-01
7.459999999999999964e+00 5.180215556267959709e-01
7.480000000000000426e+00 5.155975893815785138e-01
7.500000000000000000e+00 5.131871257767209871e-01
7.520000000000000462e+00 5.107901110802928191e-01
7.540000000000000036e+00 5.084064543269309899e-01
7.560000000000000497e+00 5.060361026200621559e-01
7.580000000000000071e+00 5.036789651542711299e-01
7.600000000000000533e+00 5.013349898816751304e-01
7.620000000000000107e+00 4.990040861624475133e-01
7.640000000000000568e+00 4.966862028101025062e-01
7.660000000000000142e+00 4.943812493553346732e-01
7.679999999999999716e+00 4.920891754851538513e-01
7.700000000000000178e+00 4.898098909050773164e-01
7.719999999999999751e+00 4.875433461871145346e-01
7.740000000000000213e+00 4.852894512152689521e-01
7.759999999999999787e+00 4.830481574575035686e-01
7.780000000000000249e+00 4.808193749793609473e-01
7.799999999999999822e+00 4.786030561551692375e-01
7.820000000000000284e+00 4.763991112344729828e-01
7.839999999999999858e+00 4.742074935078584574e-01
7.860000000000000320e+00 4.720281134107794929e-01
7.879999999999999893e+00 4.698609251594770830e-01
