# Electrodo circular de radio 6 mm y espesor 710.0 um.
# Volumen de simulacion (convencion z,y,x):
# N: 1024 x 1024 x 1024 | voxelSize:  0.02mm x 0.02mm x 0.02mm | FOV:  20.48mm x 20.48mm x 20.48mm
# 
# z [mm]		 delta[ppm]
0.000000000000000000e+00 4.567487838193684979e+00
2.000000000000000042e-02 4.523263834545896422e+00
4.000000000000000083e-02 4.478433739946535930e+00
5.999999999999999778e-02 4.433060393295490620e+00
8.000000000000000167e-02 4.387205576308409682e+00
1.000000000000000056e-01 4.340930330429460859e+00
1.199999999999999956e-01 4.294294706679771423e+00
1.400000000000000133e-01 4.247357658589301366e+00
1.600000000000000033e-01 4.200176825962513405e+00
1.799999999999999933e-01 4.152808417976609157e+00
2.000000000000000111e-01 4.105307036574797230e+00
2.200000000000000011e-01 4.057725575310406896e+00
2.399999999999999911e-01 4.010115075735155798e+00
2.600000000000000089e-01 3.962524650490768519e+00
2.800000000000000266e-01 3.915001371493135984e+00
2.999999999999999889e-01 3.867590220429432346e+00
3.200000000000000067e-01 3.820334007692548273e+00
3.400000000000000244e-01 3.773273350964377215e+00
3.599999999999999867e-01 3.726446623149777704e+00
3.800000000000000044e-01 3.679889957991611116e+00
4.000000000000000222e-01 3.633637224454486336e+00
4.199999999999999845e-01 3.587720057080417302e+00
4.400000000000000022e-01 3.542167853532479427e+00
4.600000000000000200e-01 3.497007826560139421e+00
4.799999999999999822e-01 3.452265020974175425e+00
5.000000000000000000e-01 3.407962383599276279e+00
5.200000000000000178e-01 3.364120795700834332e+00
5.400000000000000355e-01 3.320759157118641891e+00
5.600000000000000533e-01 3.277894430210799293e+00
5.799999999999999600e-01 3.235541734424540294e+00
5.999999999999999778e-01 3.193714398010675470e+00
6.199999999999999956e-01 3.152424059542450419e+00
6.400000000000000133e-01 3.111680724032282352e+00
6.600000000000000311e-01 3.071492868291364253e+00
6.800000000000000488e-01 3.031867498510778525e+00
7.000000000000000666e-01 2.992810256813722258e+00
7.199999999999999734e-01 2.954325477873251060e+00
7.399999999999999911e-01 2.916416294494975858e+00
7.600000000000000089e-01 2.879084691327515433e+00
7.800000000000000266e-01 2.842331607793626702e+00
8.000000000000000444e-01 2.806156987436740913e+00
8.200000000000000622e-01 2.770559876963676338e+00
8.399999999999999689e-01 2.735538470188093818e+00
8.599999999999999867e-01 2.701090202344660796e+00
8.800000000000000044e-01 2.667211787973685855e+00
9.000000000000000222e-01 2.633899310003827487e+00
9.200000000000000400e-01 2.601148251224198127e+00
9.400000000000000577e-01 2.568953577910291219e+00
9.599999999999999645e-01 2.537309764789349664e+00
9.799999999999999822e-01 2.506210873202527001e+00
1.000000000000000000e+00 2.475650569655394317e+00
1.020000000000000018e+00 2.445622198675022396e+00
1.040000000000000036e+00 2.416118795188132662e+00
1.060000000000000053e+00 2.387133152350179532e+00
1.080000000000000071e+00 2.358657828086972774e+00
1.100000000000000089e+00 2.330685208252471163e+00
1.120000000000000107e+00 2.303207507739837290e+00
1.140000000000000124e+00 2.276216829371681794e+00
1.159999999999999920e+00 2.249705160016170602e+00
1.179999999999999938e+00 2.223664425635746955e+00
1.199999999999999956e+00 2.198086482861980162e+00
1.219999999999999973e+00 2.172963170631458496e+00
1.239999999999999991e+00 2.148286297664488753e+00
1.260000000000000009e+00 2.124047691105813485e+00
1.280000000000000027e+00 2.100239180341048062e+00
1.300000000000000044e+00 2.076852643038723745e+00
1.320000000000000062e+00 2.053879985710416634e+00
1.340000000000000080e+00 2.031313187523403840e+00
1.360000000000000098e+00 2.009144277985570159e+00
1.380000000000000115e+00 1.987365378866881693e+00
1.400000000000000133e+00 1.965968679355048376e+00
1.419999999999999929e+00 1.944946476391576695e+00
1.439999999999999947e+00 1.924291147615314390e+00
1.459999999999999964e+00 1.903995190386003067e+00
1.479999999999999982e+00 1.884051192797771002e+00
1.500000000000000000e+00 1.864451871631460644e+00
1.520000000000000018e+00 1.845190041692578831e+00
1.540000000000000036e+00 1.826258652903478330e+00
1.560000000000000053e+00 1.807650758188718676e+00
1.580000000000000071e+00 1.789359549890312984e+00
1.600000000000000089e+00 1.771378326399611236e+00
1.620000000000000107e+00 1.753700528053104168e+00
1.640000000000000124e+00 1.736319702683262189e+00
1.660000000000000142e+00 1.719229541129263739e+00
1.679999999999999938e+00 1.702423841859854070e+00
1.699999999999999956e+00 1.685896546212531044e+00
1.719999999999999973e+00 1.669641702219815116e+00
1.739999999999999991e+00 1.653653499671971616e+00
1.760000000000000009e+00 1.637926233263092168e+00
1.780000000000000027e+00 1.622454337556112902e+00
1.800000000000000044e+00 1.607232349547909500e+00
1.820000000000000062e+00 1.592254943601153050e+00
1.840000000000000080e+00 1.577516893516418994e+00
1.860000000000000098e+00 1.563013107482939201e+00
1.880000000000000115e+00 1.548738589732329807e+00
1.900000000000000133e+00 1.534688475549607967e+00
1.919999999999999929e+00 1.520857992575027628e+00
1.939999999999999947e+00 1.507242495907383129e+00
1.959999999999999964e+00 1.493837429110153492e+00
1.979999999999999982e+00 1.480638359431183382e+00
2.000000000000000000e+00 1.467640938563664399e+00
2.020000000000000018e+00 1.454840937999454020e+00
2.040000000000000036e+00 1.442234209587508698e+00
2.060000000000000053e+00 1.429816721032334259e+00
2.080000000000000071e+00 1.417584516288698415e+00
2.100000000000000089e+00 1.405533751211748283e+00
2.120000000000000107e+00 1.393660653820802953e+00
2.140000000000000124e+00 1.381961560103551090e+00
2.160000000000000142e+00 1.370432874179283722e+00
2.180000000000000160e+00 1.359071104256096341e+00
2.200000000000000178e+00 1.347872822719284880e+00
2.220000000000000195e+00 1.336834702237567063e+00
2.240000000000000213e+00 1.325953475800977666e+00
2.260000000000000231e+00 1.315225972969683133e+00
2.280000000000000249e+00 1.304649079882081342e+00
2.300000000000000266e+00 1.294219775637826864e+00
2.319999999999999840e+00 1.283935092296166536e+00
2.339999999999999858e+00 1.273792151383110971e+00
2.359999999999999876e+00 1.263788123897233273e+00
2.379999999999999893e+00 1.253920266929579252e+00
2.399999999999999911e+00 1.244185883693985195e+00
2.419999999999999929e+00 1.234582360247258981e+00
2.439999999999999947e+00 1.225107125558784649e+00
2.459999999999999964e+00 1.215757688317653740e+00
2.479999999999999982e+00 1.206531597056526017e+00
2.500000000000000000e+00 1.197426477031713343e+00
2.520000000000000018e+00 1.188439990414400738e+00
2.540000000000000036e+00 1.179569873229177945e+00
2.560000000000000053e+00 1.170813895626155121e+00
2.580000000000000071e+00 1.162169898863057549e+00
2.600000000000000089e+00 1.153635755670187057e+00
2.620000000000000107e+00 1.145209407260952439e+00
2.640000000000000124e+00 1.136888823802213233e+00
2.660000000000000142e+00 1.128672041437916551e+00
2.680000000000000160e+00 1.120557122876024048e+00
2.700000000000000178e+00 1.112542194409836371e+00
2.720000000000000195e+00 1.104625406633368279e+00
2.740000000000000213e+00 1.096804971444923504e+00
2.760000000000000231e+00 1.089079122901569496e+00
2.780000000000000249e+00 1.081446154189554809e+00
2.800000000000000266e+00 1.073904378629284118e+00
2.819999999999999840e+00 1.066452166597217310e+00
2.839999999999999858e+00 1.059087906691642100e+00
2.859999999999999876e+00 1.051810042590835215e+00
2.879999999999999893e+00 1.044617034390667998e+00
2.899999999999999911e+00 1.037507395383939324e+00
2.919999999999999929e+00 1.030479653579855492e+00
2.939999999999999947e+00 1.023532388389583492e+00
2.959999999999999964e+00 1.016664192338401884e+00
2.979999999999999982e+00 1.009873707642747975e+00
3.000000000000000000e+00 1.003159588124841628e+00
3.020000000000000018e+00 9.965205356666932968e-01
3.040000000000000036e+00 9.899552623377814164e-01
3.060000000000000053e+00 9.834625267116846592e-01
3.080000000000000071e+00 9.770410962164687296e-01
3.100000000000000089e+00 9.706897832998299114e-01
3.120000000000000107e+00 9.644074080125937254e-01
3.140000000000000124e+00 9.581928340084890916e-01
3.160000000000000142e+00 9.520449313702457061e-01
3.180000000000000160e+00 9.459626124303708306e-01
3.200000000000000178e+00 9.399447948500488925e-01
3.220000000000000195e+00 9.339904372475391625e-01
3.240000000000000213e+00 9.280985025391902399e-01
3.260000000000000231e+00 9.222679933623082471e-01
3.280000000000000249e+00 9.164979156883387157e-01
3.300000000000000266e+00 9.107873140272934043e-01
3.320000000000000284e+00 9.051352353222380520e-01
3.339999999999999858e+00 8.995407639226437047e-01
3.359999999999999876e+00 8.940029857700275695e-01
3.379999999999999893e+00 8.885210231278097837e-01
3.399999999999999911e+00 8.830939990670813033e-01
3.419999999999999929e+00 8.777210719408071737e-01
3.439999999999999947e+00 8.724014001793793938e-01
3.459999999999999964e+00 8.671341764972458899e-01
3.479999999999999982e+00 8.619185930070140111e-01
3.500000000000000000e+00 8.567538751468498637e-01
3.520000000000000018e+00 8.516392471225648908e-01
3.540000000000000036e+00 8.465739655443608180e-01
3.560000000000000053e+00 8.415572852054636899e-01
3.580000000000000071e+00 8.365884924170183812e-01
3.600000000000000089e+00 8.316668711324959329e-01
3.620000000000000107e+00 8.267917359697923851e-01
3.640000000000000124e+00 8.219623986897374168e-01
3.660000000000000142e+00 8.171782008946943954e-01
3.680000000000000160e+00 8.124384808701485827e-01
3.700000000000000178e+00 8.077426059493196808e-01
3.720000000000000195e+00 8.030899397259413375e-01
3.740000000000000213e+00 7.984798740746442691e-01
3.760000000000000231e+00 7.939117967436450929e-01
3.780000000000000249e+00 7.893851230208825953e-01
3.800000000000000266e+00 7.848992637144781570e-01
3.820000000000000284e+00 7.804536564548171240e-01
3.839999999999999858e+00 7.760477340712694794e-01
3.859999999999999876e+00 7.716809555206392002e-01
3.879999999999999893e+00 7.673527746677304417e-01
3.899999999999999911e+00 7.630626708308164696e-01
3.919999999999999929e+00 7.588101179742680058e-01
3.939999999999999947e+00 7.545946148619017135e-01
3.959999999999999964e+00 7.504156546689982887e-01
3.979999999999999982e+00 7.462727547345838763e-01
4.000000000000000000e+00 7.421654266008218537e-01
4.020000000000000462e+00 7.380932053554903893e-01
4.040000000000000036e+00 7.340556201057875096e-01
4.060000000000000497e+00 7.300522229025070420e-01
4.080000000000000071e+00 7.260825596559425943e-01
4.099999999999999645e+00 7.221461986334452021e-01
4.120000000000000107e+00 7.182427018242032446e-01
4.139999999999999680e+00 7.143716530020435274e-01
4.160000000000000142e+00 7.105326295465423936e-01
4.179999999999999716e+00 7.067252300631390316e-01
4.200000000000000178e+00 7.029490466670574866e-01
4.219999999999999751e+00 6.992036921530166982e-01
4.240000000000000213e+00 6.954887727491151361e-01
4.259999999999999787e+00 6.918039148285870521e-01
4.280000000000000249e+00 6.881487381398864178e-01
4.299999999999999822e+00 6.845228820531131797e-01
4.320000000000000284e+00 6.809259792731900962e-01
4.339999999999999858e+00 6.773576816137774070e-01
4.360000000000000320e+00 6.738176341994991381e-01
4.379999999999999893e+00 6.703055007603505588e-01
4.400000000000000355e+00 6.668209383295737869e-01
4.419999999999999929e+00 6.633636220517353799e-01
4.440000000000000391e+00 6.599332203819432419e-01
4.459999999999999964e+00 6.565294194009285711e-01
4.480000000000000426e+00 6.531518985219795237e-01
4.500000000000000000e+00 6.498003543065087317e-01
4.520000000000000462e+00 6.464744766841314938e-01
4.540000000000000036e+00 6.431739722624081335e-01
4.560000000000000497e+00 6.398985410661517381e-01
4.580000000000000071e+00 6.366478993351761817e-01
4.600000000000000533e+00 6.334217567880041644e-01
4.620000000000000107e+00 6.302198389015951641e-01
4.639999999999999680e+00 6.270418647053219718e-01
4.660000000000000142e+00 6.238875685368140411e-01
4.679999999999999716e+00 6.207566783711007119e-01
4.700000000000000178e+00 6.176489370468691842e-01
4.719999999999999751e+00 6.145640811363859424e-01
4.740000000000000213e+00 6.115018616365999193e-01
4.759999999999999787e+00 6.084620233845137172e-01
4.780000000000000249e+00 6.054443252076910920e-01
4.799999999999999822e+00 6.024485198904714345e-01
4.820000000000000284e+00 5.994743737786053517e-01
4.839999999999999858e+00 5.965216473007231013e-01
4.860000000000000320e+00 5.935901140219418393e-01
4.879999999999999893e+00 5.906795417257620917e-01
4.900000000000000355e+00 5.877897109116246854e-01
4.919999999999999929e+00 5.849203964414287915e-01
4.940000000000000391e+00 5.820713854761407902e-01
4.959999999999999964e+00 5.792424596918925861e-01
4.980000000000000426e+00 5.764334126508579015e-01
5.000000000000000000e+00 5.736440325909252236e-01
5.020000000000000462e+00 5.708741192261940212e-01
5.040000000000000036e+00 5.681234671149508753e-01
5.060000000000000497e+00 5.653918818852622374e-01
5.080000000000000071e+00 5.626791641850364956e-01
5.100000000000000533e+00 5.599851253282736030e-01
5.120000000000000107e+00 5.573095718317802039e-01
5.139999999999999680e+00 5.546523204777604743e-01
5.160000000000000142e+00 5.520131834407687732e-01
5.179999999999999716e+00 5.493919827624229590e-01
5.200000000000000178e+00 5.467885360729818345e-01
5.219999999999999751e+00 5.442026704740671184e-01
5.240000000000000213e+00 5.416342088582721814e-01
5.259999999999999787e+00 5.390829831958666718e-01
5.280000000000000249e+00 5.365488214566553893e-01
5.299999999999999822e+00 5.340315602967580233e-01
5.320000000000000284e+00 5.315310325859349261e-01
5.339999999999999858e+00 5.290470794906153573e-01
5.360000000000000320e+00 5.265795386107505749e-01
5.379999999999999893e+00 5.241282554553401418e-01
5.400000000000000355e+00 5.216930721919049718e-01
5.419999999999999929e+00 5.192738385108259802e-01
5.440000000000000391e+00 5.168704009913667186e-01
5.459999999999999964e+00 5.144826133512404587e-01
5.480000000000000426e+00 5.121103264321156256e-01
5.500000000000000000e+00 5.097533978308946834e-01
5.520000000000000462e+00 5.074116825084902249e-01
5.540000000000000036e+00 5.050850417993866248e-01
5.560000000000000497e+00 5.027733346464881015e-01
5.580000000000000071e+00 5.004764259855722930e-01
5.600000000000000533e+00 4.981941786099037817e-01
5.620000000000000107e+00 4.959264609262659662e-01
5.639999999999999680e+00 4.936731394520260108e-01
5.660000000000000142e+00 4.914340859394842331e-01
5.679999999999999716e+00 4.892091705089711140e-01
5.700000000000000178e+00 4.869982681383239198e-01
5.719999999999999751e+00 4.848012524346000940e-01
5.740000000000000213e+00 4.826180014855162015e-01
5.759999999999999787e+00 4.804483922732852852e-01
5.780000000000000249e+00 4.782923058849216646e-01
5.799999999999999822e+00 4.761496225706883245e-01
5.820000000000000284e+00 4.740202263102133440e-01
5.839999999999999858e+00 4.719040005189626408e-01
5.860000000000000320e+00 4.698008319671641009e-01
5.879999999999999893e+00 4.677106071367249096e-01
5.900000000000000355e+00 4.656332154899661679e-01
5.919999999999999929e+00 4.635685464803624423e-01
5.940000000000000391e+00 4.615164921681435550e-01
5.959999999999999964e+00 4.594769448872050854e-01
5.980000000000000426e+00 4.574497992046481776e-01
6.000000000000000000e+00 4.554349502472021527e-01
6.020000000000000462e+00 4.534322950018094822e-01
6.040000000000000036e+00 4.514417313038506796e-01
6.060000000000000497e+00 4.494631584759016252e-01
6.080000000000000071e+00 4.474964769810732546e-01
6.100000000000000533e+00 4.455415883970829105e-01
6.120000000000000107e+00 4.435983957369667996e-01
6.140000000000000568e+00 4.416668027556239218e-01
6.160000000000000142e+00 4.397467149411952159e-01
6.179999999999999716e+00 4.378380381512546049e-01
6.200000000000000178e+00 4.359406802770896538e-01
6.219999999999999751e+00 4.340545492067011679e-01
6.240000000000000213e+00 4.321795551652968803e-01
6.259999999999999787e+00 4.303156080022826901e-01
6.280000000000000249e+00 4.284626202101846082e-01
6.299999999999999822e+00 4.266205035328027306e-01
6.320000000000000284e+00 4.247891726658891698e-01
6.339999999999999858e+00 4.229685411836379694e-01
6.360000000000000320e+00 4.211585259233400214e-01
6.379999999999999893e+00 4.193590422273744123e-01
6.400000000000000355e+00 4.175700090151953092e-01
6.419999999999999929e+00 4.157913433379704093e-01
6.440000000000000391e+00 4.140229661401462202e-01
6.459999999999999964e+00 4.122647961238759540e-01
6.480000000000000426e+00 4.105167562035550444e-01
6.500000000000000000e+00 4.087787666771521833e-01
6.520000000000000462e+00 4.070507523759979707e-01
6.540000000000000036e+00 4.053326351401106420e-01
6.560000000000000497e+00 4.036243416666958073e-01
6.580000000000000071e+00 4.019257952865338268e-01
6.600000000000000533e+00 4.002369245135196651e-01
6.620000000000000107e+00 3.985576541191433453e-01
6.640000000000000568e+00 3.968879143865978731e-01
6.660000000000000142e+00 3.952276314803577772e-01
6.679999999999999716e+00 3.935767374072509095e-01
6.700000000000000178e+00 3.919351596780926150e-01
6.719999999999999751e+00 3.903028319793374612e-01
6.740000000000000213e+00 3.886796831237037120e-01
6.759999999999999787e+00 3.870656484348541371e-01
6.780000000000000249e+00 3.854606579838961711e-01
6.799999999999999822e+00 3.838646486908188216e-01
6.820000000000000284e+00 3.822775518436890008e-01
6.839999999999999858e+00 3.806993059194119233e-01
6.860000000000000320e+00 3.791298433823795389e-01
6.879999999999999893e+00 3.775691042284046173e-01
6.900000000000000355e+00 3.760170220595634438e-01
6.919999999999999929e+00 3.744735383539329332e-01
6.940000000000000391e+00 3.729385878132884247e-01
6.959999999999999964e+00 3.714121133626302473e-01
6.980000000000000426e+00 3.698940507673424971e-01
7.000000000000000000e+00 3.683843443652723426e-01
7.020000000000000462e+00 3.668829309498671254e-01
7.040000000000000036e+00 3.653897562389463727e-01
7.060000000000000497e+00 3.639047580202873222e-01
7.080000000000000071e+00 3.624278833599695049e-01
7.100000000000000533e+00 3.609590710068044661e-01
7.120000000000000107e+00 3.594982693445461508e-01
7.140000000000000568e+00 3.580454180514701101e-01
7.160000000000000142e+00 3.566004667994957522e-01
7.179999999999999716e+00 3.551633561651365567e-01
7.200000000000000178e+00 3.537340370800048928e-01
7.219999999999999751e+00 3.523124509892829326e-01
7.240000000000000213e+00 3.508985500568087557e-01
7.259999999999999787e+00 3.494922765671141240e-01
7.280000000000000249e+00 3.480935838897546430e-01
7.299999999999999822e+00 3.467024151208826233e-01
7.320000000000000284e+00 3.453187248101962648e-01
7.339999999999999858e+00 3.439424568379101377e-01
7.360000000000000320e+00 3.425735669091866109e-01
7.379999999999999893e+00 3.412119996622715590e-01
7.400000000000000355e+00 3.398577119339796782e-01
7.419999999999999929e+00 3.385106490946420688e-01
7.440000000000000391e+00 3.371707690897453591e-01
7.459999999999999964e+00 3.358380179972465518e-01
7.480000000000000426e+00 3.345123548491304444e-01
7.500000000000000000e+00 3.331937264065265025e-01
7.520000000000000462e+00 3.318820927665167009e-01
7.540000000000000036e+00 3.305774013503947062e-01
7.560000000000000497e+00 3.292796132996970160e-01
7.580000000000000071e+00 3.279886766727923564e-01
7.600000000000000533e+00 3.267045536357460200e-01
7.620000000000000107e+00 3.254271928623292398e-01
7.640000000000000568e+00 3.241565575239184760e-01
7.660000000000000142e+00 3.228925968878710862e-01
7.679999999999999716e+00 3.216352751123267573e-01
7.700000000000000178e+00 3.203845420377778863e-01
7.719999999999999751e+00 3.191403627912412500e-01
7.740000000000000213e+00 3.179026877656943584e-01
7.759999999999999787e+00 3.166714830397754921e-01
7.780000000000000249e+00 3.154466995396313367e-01
7.799999999999999822e+00 3.142283042788759917e-01
7.820000000000000284e+00 3.130162486972515867e-01
7.839999999999999858e+00 3.118105007272974905e-01
7.860000000000000320e+00 3.106110123040775606e-01
7.879999999999999893e+00 3.094177522635832012e-01
