# Electrodo circular de radio 6 mm y espesor 710.0 um.
# Volumen de simulacion (convencion z,y,x):
# N: 1024 x 1024 x 1024 | voxelSize:  0.02mm x 0.02mm x 0.02mm | FOV:  20.48mm x 20.48mm x 20.48mm
# 
# z [mm]		 delta[ppm]
0.000000000000000000e+00 6.627036770620948758e+00
2.000000000000000042e-02 6.238445471360337002e+00
4.000000000000000083e-02 5.860860029935002657e+00
5.999999999999999778e-02 5.500423252131026786e+00
8.000000000000000167e-02 5.161584236978839613e+00
1.000000000000000056e-01 4.846979286285446165e+00
1.199999999999999956e-01 4.557631401410895400e+00
1.400000000000000133e-01 4.293310219026933439e+00
1.600000000000000033e-01 4.052922440779717306e+00
1.799999999999999933e-01 3.834854918668532786e+00
2.000000000000000111e-01 3.637239509920137337e+00
2.200000000000000011e-01 3.458137888090338397e+00
2.399999999999999911e-01 3.295659741325812853e+00
2.600000000000000089e-01 3.148030929783259602e+00
2.800000000000000266e-01 3.013627356757557330e+00
2.999999999999999889e-01 2.890986533113025114e+00
3.200000000000000067e-01 2.778805786099192154e+00
3.400000000000000244e-01 2.675932926218560048e+00
3.599999999999999867e-01 2.581353305247495289e+00
3.800000000000000044e-01 2.494175548617338034e+00
4.000000000000000222e-01 2.413617391340585172e+00
4.199999999999999845e-01 2.338992332503310401e+00
4.400000000000000022e-01 2.269697481205208867e+00
4.600000000000000200e-01 2.205202716512395078e+00
4.799999999999999822e-01 2.145041139592646751e+00
5.000000000000000000e-01 2.088800761414178364e+00
5.200000000000000178e-01 2.036117278126148733e+00
5.400000000000000355e-01 1.986667853404505024e+00
5.600000000000000533e-01 1.940165732897600304e+00
5.799999999999999600e-01 1.896355636545260959e+00
5.999999999999999778e-01 1.855009758370913309e+00
6.199999999999999956e-01 1.815924356360903991e+00
6.400000000000000133e-01 1.778916773193389478e+00
6.600000000000000311e-01 1.743822905009355217e+00
6.800000000000000488e-01 1.710494968703959229e+00
7.000000000000000666e-01 1.678799613437125915e+00
7.199999999999999734e-01 1.648616233282105936e+00
7.399999999999999911e-01 1.619835549700681998e+00
7.600000000000000089e-01 1.592358324056178498e+00
7.800000000000000266e-01 1.566094286929091028e+00
8.000000000000000444e-01 1.540961145327278903e+00
8.200000000000000622e-01 1.516883769188015041e+00
8.399999999999999689e-01 1.493793417404871482e+00
8.599999999999999867e-01 1.471627116528203549e+00
8.800000000000000044e-01 1.450327050364497383e+00
9.000000000000000222e-01 1.429840083512956550e+00
9.200000000000000400e-01 1.410117274301680101e+00
9.400000000000000577e-01 1.391113508400325216e+00
9.599999999999999645e-01 1.372787105364014160e+00
9.799999999999999822e-01 1.355099536625572032e+00
1.000000000000000000e+00 1.338015103723388277e+00
1.020000000000000018e+00 1.321500721522476329e+00
1.040000000000000036e+00 1.305525651636952889e+00
1.060000000000000053e+00 1.290061336498371292e+00
1.080000000000000071e+00 1.275081175666182842e+00
1.100000000000000089e+00 1.260560399853618563e+00
1.120000000000000107e+00 1.246475880689227989e+00
1.140000000000000124e+00 1.232806036393376159e+00
1.159999999999999920e+00 1.219530667880325048e+00
1.179999999999999938e+00 1.206630889697279052e+00
1.199999999999999956e+00 1.194088986899140892e+00
1.219999999999999973e+00 1.181888366303385451e+00
1.239999999999999991e+00 1.170013429919089187e+00
1.260000000000000009e+00 1.158449542657173925e+00
1.280000000000000027e+00 1.147182918932254436e+00
1.300000000000000044e+00 1.136200603796022390e+00
1.320000000000000062e+00 1.125490370150789676e+00
1.340000000000000080e+00 1.115040710906518129e+00
1.360000000000000098e+00 1.104840744695698485e+00
1.380000000000000115e+00 1.094880217143797685e+00
1.400000000000000133e+00 1.085149413500573479e+00
1.419999999999999929e+00 1.075639167492334680e+00
1.439999999999999947e+00 1.066340779518174076e+00
1.459999999999999964e+00 1.057246031848997792e+00
1.479999999999999982e+00 1.048347111393872266e+00
1.500000000000000000e+00 1.039636630243094606e+00
1.520000000000000018e+00 1.031107552117445092e+00
1.540000000000000036e+00 1.022753217436684681e+00
1.560000000000000053e+00 1.014567272822215704e+00
1.580000000000000071e+00 1.006543700018348364e+00
1.600000000000000089e+00 9.986767478516838104e-01
1.620000000000000107e+00 9.909609644492992642e-01
1.640000000000000124e+00 9.833911312566220309e-01
1.660000000000000142e+00 9.759622980904432143e-01
1.679999999999999938e+00 9.686697188040959139e-01
1.699999999999999956e+00 9.615088887888205704e-01
1.719999999999999973e+00 9.544754820374946602e-01
1.739999999999999991e+00 9.475653907693382116e-01
1.760000000000000009e+00 9.407746636016752761e-01
1.780000000000000027e+00 9.340995470228099506e-01
1.800000000000000044e+00 9.275364245215754755e-01
1.820000000000000062e+00 9.210818596743710618e-01
1.840000000000000080e+00 9.147325360216841394e-01
1.860000000000000098e+00 9.084853015686771283e-01
1.880000000000000115e+00 9.023371093245406982e-01
1.900000000000000133e+00 8.962850630441102640e-01
1.919999999999999929e+00 8.903263582726206327e-01
1.939999999999999947e+00 8.844583291785610424e-01
1.959999999999999964e+00 8.786783900648282852e-01
1.979999999999999982e+00 8.729840831625568232e-01
2.000000000000000000e+00 8.673730204874029459e-01
2.020000000000000018e+00 8.618429324797688418e-01
2.040000000000000036e+00 8.563916101985517004e-01
2.060000000000000053e+00 8.510169547070460805e-01
2.080000000000000071e+00 8.457169195075500134e-01
2.100000000000000089e+00 8.404895605831567140e-01
2.120000000000000107e+00 8.353329790876914407e-01
2.140000000000000124e+00 8.302453719636520013e-01
2.160000000000000142e+00 8.252249748077549185e-01
2.180000000000000160e+00 8.202701129929704793e-01
2.200000000000000178e+00 8.153791447400358106e-01
2.220000000000000195e+00 8.105505126789939174e-01
2.240000000000000213e+00 8.057826870584847700e-01
2.260000000000000231e+00 8.010742176876373133e-01
2.280000000000000249e+00 7.964236773250732426e-01
2.300000000000000266e+00 7.918297139476789814e-01
2.319999999999999840e+00 7.872909942589295662e-01
2.339999999999999858e+00 7.828062562349301645e-01
2.359999999999999876e+00 7.783742528026095231e-01
2.379999999999999893e+00 7.739938046178158615e-01
2.399999999999999911e+00 7.696637438581628299e-01
2.419999999999999929e+00 7.653829671907553811e-01
2.439999999999999947e+00 7.611503797367130675e-01
2.459999999999999964e+00 7.569649481896012500e-01
2.479999999999999982e+00 7.528256448997077133e-01
2.500000000000000000e+00 7.487315011062215531e-01
2.520000000000000018e+00 7.446815512032957107e-01
2.540000000000000036e+00 7.406748860519164479e-01
2.560000000000000053e+00 7.367105973777227090e-01
2.580000000000000071e+00 7.327878311298875458e-01
2.600000000000000089e+00 7.289057320766455517e-01
2.620000000000000107e+00 7.250634971809831741e-01
2.640000000000000124e+00 7.212603203447208733e-01
2.660000000000000142e+00 7.174954457717211964e-01
2.680000000000000160e+00 7.137681129296663540e-01
2.700000000000000178e+00 7.100776098736348851e-01
2.720000000000000195e+00 7.064232183765555284e-01
2.740000000000000213e+00 7.028042671866321367e-01
2.760000000000000231e+00 6.992200773982061301e-01
2.780000000000000249e+00 6.956700156184034700e-01
2.800000000000000266e+00 6.921534395289584696e-01
2.819999999999999840e+00 6.886697509378366666e-01
2.839999999999999858e+00 6.852183416059468568e-01
2.859999999999999876e+00 6.817986461612305371e-01
2.879999999999999893e+00 6.784100881399359739e-01
2.899999999999999911e+00 6.750521327408690597e-01
2.919999999999999929e+00 6.717242331570523195e-01
2.939999999999999947e+00 6.684258831494070963e-01
2.959999999999999964e+00 6.651565636172863671e-01
2.979999999999999982e+00 6.619157949709546518e-01
3.000000000000000000e+00 6.587030840184590064e-01
3.020000000000000018e+00 6.555179761177873932e-01
3.040000000000000036e+00 6.523600023270913484e-01
3.060000000000000053e+00 6.492287313173213947e-01
3.080000000000000071e+00 6.461237168648203966e-01
3.100000000000000089e+00 6.430445495066816619e-01
3.120000000000000107e+00 6.399908043210651432e-01
3.140000000000000124e+00 6.369620923073928687e-01
3.160000000000000142e+00 6.339580085347887861e-01
3.180000000000000160e+00 6.309781832306373683e-01
3.200000000000000178e+00 6.280222302406434087e-01
3.220000000000000195e+00 6.250897978090603768e-01
3.240000000000000213e+00 6.221805174320953480e-01
3.260000000000000231e+00 6.192940543144732635e-01
3.280000000000000249e+00 6.164300565577349733e-01
3.300000000000000266e+00 6.135882052775112339e-01
3.320000000000000284e+00 6.107681642097146923e-01
3.339999999999999858e+00 6.079696294742663598e-01
3.359999999999999876e+00 6.051922795386402987e-01
3.379999999999999893e+00 6.024358246134201567e-01
3.399999999999999911e+00 5.996999570574607086e-01
3.419999999999999929e+00 5.969844003919950737e-01
3.439999999999999947e+00 5.942888600847006098e-01
3.459999999999999964e+00 5.916130721686994054e-01
3.479999999999999982e+00 5.889567544910007113e-01
3.500000000000000000e+00 5.863196549240669020e-01
3.520000000000000018e+00 5.837015030136720739e-01
3.540000000000000036e+00 5.811020577702606937e-01
3.560000000000000053e+00 5.785210598029435491e-01
3.580000000000000071e+00 5.759582786791862530e-01
3.600000000000000089e+00 5.734134654776852358e-01
3.620000000000000107e+00 5.708863997044679728e-01
3.640000000000000124e+00 5.683768423525904501e-01
3.660000000000000142e+00 5.658845823640622497e-01
3.680000000000000160e+00 5.634093901267230864e-01
3.700000000000000178e+00 5.609510634708689825e-01
3.720000000000000195e+00 5.585093816925446042e-01
3.740000000000000213e+00 5.560841510750735850e-01
3.760000000000000231e+00 5.536751593667065263e-01
3.780000000000000249e+00 5.512822208167236226e-01
3.800000000000000266e+00 5.489051311979453729e-01
3.820000000000000284e+00 5.465437123483773973e-01
3.839999999999999858e+00 5.441977676640996631e-01
3.859999999999999876e+00 5.418671261368491754e-01
3.879999999999999893e+00 5.395515984090958339e-01
3.899999999999999911e+00 5.372510202993022732e-01
3.919999999999999929e+00 5.349652093421919385e-01
3.939999999999999947e+00 5.326940077928067341e-01
3.959999999999999964e+00 5.304372397451373455e-01
3.979999999999999982e+00 5.281947536073950955e-01
4.000000000000000000e+00 5.259663797195328616e-01
4.020000000000000462e+00 5.237519722915242593e-01
4.040000000000000036e+00 5.215513676143080923e-01
4.060000000000000497e+00 5.193644254542145733e-01
4.080000000000000071e+00 5.171909877752970397e-01
4.099999999999999645e+00 5.150309195823568054e-01
4.120000000000000107e+00 5.128840682506384807e-01
4.139999999999999680e+00 5.107503038112248817e-01
4.160000000000000142e+00 5.086294788035211623e-01
4.179999999999999716e+00 5.065214679960877708e-01
4.200000000000000178e+00 5.044261288593564485e-01
4.219999999999999751e+00 5.023433407163406805e-01
4.240000000000000213e+00 5.002729657483776515e-01
4.259999999999999787e+00 4.982148875693905299e-01
4.280000000000000249e+00 4.961689728636617946e-01
4.299999999999999822e+00 4.941351093786633952e-01
4.320000000000000284e+00 4.921131681050395779e-01
4.339999999999999858e+00 4.901030406822683427e-01
4.360000000000000320e+00 4.881046022214395319e-01
4.379999999999999893e+00 4.861177481193497130e-01
4.400000000000000355e+00 4.841423574316032208e-01
4.419999999999999929e+00 4.821783290899563923e-01
4.440000000000000391e+00 4.802255459279654581e-01
4.459999999999999964e+00 4.782839102977374246e-01
4.480000000000000426e+00 4.763533086530156724e-01
4.500000000000000000e+00 4.744336465606471265e-01
4.520000000000000462e+00 4.725248139450341500e-01
4.540000000000000036e+00 4.706267194910248586e-01
4.560000000000000497e+00 4.687392564519078375e-01
4.580000000000000071e+00 4.668623364395590447e-01
4.600000000000000533e+00 4.649958559016637571e-01
4.620000000000000107e+00 4.631397292963123635e-01
4.639999999999999680e+00 4.612938561379461011e-01
4.660000000000000142e+00 4.594581535527031413e-01
4.679999999999999716e+00 4.576325240005795769e-01
4.700000000000000178e+00 4.558168872092130397e-01
4.719999999999999751e+00 4.540111484690193544e-01
4.740000000000000213e+00 4.522152299421692279e-01
4.759999999999999787e+00 4.504290396400801311e-01
4.780000000000000249e+00 4.486525021057107820e-01
4.799999999999999822e+00 4.468855279674356917e-01
4.820000000000000284e+00 4.451280439918469112e-01
4.839999999999999858e+00 4.433799633253096006e-01
4.860000000000000320e+00 4.416412149158484013e-01
4.879999999999999893e+00 4.399117143336392366e-01
4.900000000000000355e+00 4.381913925595540826e-01
4.919999999999999929e+00 4.364801674979176260e-01
4.940000000000000391e+00 4.347779721306896383e-01
4.959999999999999964e+00 4.330847266109473237e-01
4.980000000000000426e+00 4.314003657806448899e-01
5.000000000000000000e+00 4.297248119602394278e-01
5.020000000000000462e+00 4.280580018294014577e-01
5.040000000000000036e+00 4.263998597983990058e-01
5.060000000000000497e+00 4.247503242500773046e-01
5.080000000000000071e+00 4.231093216105551447e-01
5.100000000000000533e+00 4.214767919521894002e-01
5.120000000000000107e+00 4.198526636463877915e-01
5.139999999999999680e+00 4.182368783261868894e-01
5.160000000000000142e+00 4.166293662409447651e-01
5.179999999999999716e+00 4.150300705786005850e-01
5.200000000000000178e+00 4.134389234021725312e-01
5.219999999999999751e+00 4.118558693306328400e-01
5.240000000000000213e+00 4.102808421792628613e-01
5.259999999999999787e+00 4.087137879995217382e-01
5.280000000000000249e+00 4.071546423002870285e-01
5.299999999999999822e+00 4.056033524459381479e-01
5.320000000000000284e+00 4.040598555828799898e-01
5.339999999999999858e+00 4.025241003965289166e-01
5.360000000000000320e+00 4.009960256172075965e-01
5.379999999999999893e+00 3.994755811355066855e-01
5.400000000000000355e+00 3.979627072144015232e-01
5.419999999999999929e+00 3.964573549639210936e-01
5.440000000000000391e+00 3.949594661306346510e-01
5.459999999999999964e+00 3.934689929313359147e-01
5.480000000000000426e+00 3.919858785492358333e-01
5.500000000000000000e+00 3.905100763278706033e-01
5.520000000000000462e+00 3.890415308421357743e-01
5.540000000000000036e+00 3.875801964523438170e-01
5.560000000000000497e+00 3.861260190820258731e-01
5.580000000000000071e+00 3.846789541335609575e-01
5.600000000000000533e+00 3.832389488378654674e-01
5.620000000000000107e+00 3.818059595317058741e-01
5.639999999999999680e+00 3.803799347138532294e-01
5.660000000000000142e+00 3.789608316857263626e-01
5.679999999999999716e+00 3.775486001760506860e-01
5.700000000000000178e+00 3.761431983451187233e-01
5.719999999999999751e+00 3.747445771152719263e-01
5.740000000000000213e+00 3.733526955406032966e-01
5.759999999999999787e+00 3.719675057022056031e-01
5.780000000000000249e+00 3.705889674437518044e-01
5.799999999999999822e+00 3.692170339716364103e-01
5.820000000000000284e+00 3.678516659584397108e-01
5.839999999999999858e+00 3.664928177037423129e-01
5.860000000000000320e+00 3.651404506060526578e-01
5.879999999999999893e+00 3.637945200273151047e-01
5.900000000000000355e+00 3.624549881354472425e-01
5.919999999999999929e+00 3.611218113251473127e-01
5.940000000000000391e+00 3.597949524317232139e-01
5.959999999999999964e+00 3.584743688541864870e-01
5.980000000000000426e+00 3.571600241426620137e-01
6.000000000000000000e+00 3.558518766731439964e-01
6.020000000000000462e+00 3.545498906092536817e-01
6.040000000000000036e+00 3.532540252776971701e-01
6.060000000000000497e+00 3.519642455067839015e-01
6.080000000000000071e+00 3.506805115486757995e-01
6.100000000000000533e+00 3.494027887955076239e-01
6.120000000000000107e+00 3.481310384006058856e-01
6.140000000000000568e+00 3.468652263747282194e-01
6.160000000000000142e+00 3.456053147489993038e-01
6.179999999999999716e+00 3.443512700521749736e-01
6.200000000000000178e+00 3.431030551706985010e-01
6.219999999999999751e+00 3.418606372095796542e-01
6.240000000000000213e+00 3.406239798889430515e-01
6.259999999999999787e+00 3.393930507894657445e-01
6.280000000000000249e+00 3.381678144441253031e-01
6.299999999999999822e+00 3.369482389708640113e-01
6.320000000000000284e+00 3.357342896954575440e-01
6.339999999999999858e+00 3.345259351723711139e-01
6.360000000000000320e+00 3.333231415008632292e-01
6.379999999999999893e+00 3.321258777367545045e-01
6.400000000000000355e+00 3.309341107341814414e-01
6.419999999999999929e+00 3.297478099492515691e-01
6.440000000000000391e+00 3.285669429730491697e-01
6.459999999999999964e+00 3.273914797299442569e-01
6.480000000000000426e+00 3.262213885306949890e-01
6.500000000000000000e+00 3.250566396663745472e-01
6.520000000000000462e+00 3.238972021507589560e-01
6.540000000000000036e+00 3.227430467126616853e-01
6.560000000000000497e+00 3.215941430528213574e-01
6.580000000000000071e+00 3.204504622355908161e-01
6.600000000000000533e+00 3.193119746331918307e-01
6.620000000000000107e+00 3.181786517195506758e-01
6.640000000000000568e+00 3.170504645234391572e-01
6.660000000000000142e+00 3.159273848253680850e-01
6.679999999999999716e+00 3.148093842962541022e-01
6.700000000000000178e+00 3.136964351001694795e-01
6.719999999999999751e+00 3.125885095362775368e-01
6.740000000000000213e+00 3.114855800483091741e-01
6.759999999999999787e+00 3.103876195502591750e-01
6.780000000000000249e+00 3.092946008453852369e-01
6.799999999999999822e+00 3.082064974495740128e-01
6.820000000000000284e+00 3.071232824206507894e-01
6.839999999999999858e+00 3.060449298639047466e-01
6.860000000000000320e+00 3.049714131744542533e-01
6.879999999999999893e+00 3.039027070349232806e-01
6.900000000000000355e+00 3.028387850716043328e-01
6.919999999999999929e+00 3.017796225328104320e-01
6.940000000000000391e+00 3.007251933615635031e-01
6.959999999999999964e+00 2.996754733606159515e-01
6.980000000000000426e+00 2.986304366823057665e-01
7.000000000000000000e+00 2.975900596729669778e-01
7.020000000000000462e+00 2.965543167826197868e-01
7.040000000000000036e+00 2.955231848906849090e-01
7.060000000000000497e+00 2.944966386360542976e-01
7.080000000000000071e+00 2.934746554210957425e-01
7.100000000000000533e+00 2.924572101647402445e-01
7.120000000000000107e+00 2.914442807825139425e-01
7.140000000000000568e+00 2.904358423630589159e-01
7.160000000000000142e+00 2.894318733255975551e-01
7.179999999999999716e+00 2.884323490224461883e-01
7.200000000000000178e+00 2.874372483673806045e-01
7.219999999999999751e+00 2.864465468644469270e-01
7.240000000000000213e+00 2.854602239131421304e-01
7.259999999999999787e+00 2.844782552660012342e-01
7.280000000000000249e+00 2.835006207996993433e-01
7.299999999999999822e+00 2.825272964015972943e-01
7.320000000000000284e+00 2.815582624172979775e-01
7.339999999999999858e+00 2.805934949685484070e-01
7.360000000000000320e+00 2.796329748619050259e-01
7.379999999999999893e+00 2.786766783380185131e-01
7.400000000000000355e+00 2.777245866566908639e-01
7.419999999999999929e+00 2.767766762798453684e-01
7.440000000000000391e+00 2.758329289130794781e-01
7.459999999999999964e+00 2.748933211221921136e-01
7.480000000000000426e+00 2.739578350513751648e-01
7.500000000000000000e+00 2.730264474755041415e-01
7.520000000000000462e+00 2.720991409704014985e-01
7.540000000000000036e+00 2.711758924006140159e-01
7.560000000000000497e+00 2.702566847668705918e-01
7.580000000000000071e+00 2.693414951314345718e-01
7.600000000000000533e+00 2.684303069134362230e-01
7.620000000000000107e+00 2.675230972513410466e-01
7.640000000000000568e+00 2.666198499764005359e-01
7.660000000000000142e+00 2.657205424142149441e-01
7.679999999999999716e+00 2.648251588020811842e-01
7.700000000000000178e+00 2.639336765290085096e-01
7.719999999999999751e+00 2.630460802324729452e-01
7.740000000000000213e+00 2.621623474787400654e-01
7.759999999999999787e+00 2.612824632997973184e-01
7.780000000000000249e+00 2.604064053131406875e-01
7.799999999999999822e+00 2.595341589397891502e-01
7.820000000000000284e+00 2.586657019652697787e-01
7.839999999999999858e+00 2.578010201943426449e-01
7.860000000000000320e+00 2.569400914521426382e-01
7.879999999999999893e+00 2.560829019220640101e-01
