# Electrodo circular de radio 6 mm y espesor 710.0 um.
# Volumen de simulacion (convencion z,y,x):
# N: 1024 x 1024 x 1024 | voxelSize:  0.02mm x 0.02mm x 0.02mm | FOV:  20.48mm x 20.48mm x 20.48mm
# 
# z [mm]		 delta[ppm]
0.000000000000000000e+00 2.377635875940721455e+00
2.000000000000000042e-02 2.375186113450023395e+00
4.000000000000000083e-02 2.372661773791337581e+00
5.999999999999999778e-02 2.370063259799234601e+00
8.000000000000000167e-02 2.367390990056582378e+00
1.000000000000000056e-01 2.364645396276610523e+00
1.199999999999999956e-01 2.361826920828865806e+00
1.400000000000000133e-01 2.358936018057430584e+00
1.600000000000000033e-01 2.355973151194421522e+00
1.799999999999999933e-01 2.352938795503687341e+00
2.000000000000000111e-01 2.349833434404089871e+00
2.200000000000000011e-01 2.346657563123076162e+00
2.399999999999999911e-01 2.343411684569785880e+00
2.600000000000000089e-01 2.340096313218858803e+00
2.800000000000000266e-01 2.336711970747172185e+00
2.999999999999999889e-01 2.333259190126805827e+00
3.200000000000000067e-01 2.329738511057724448e+00
3.400000000000000244e-01 2.326150484253734607e+00
3.599999999999999867e-01 2.322495666673942694e+00
3.800000000000000044e-01 2.318774625995912331e+00
4.000000000000000222e-01 2.314987935656974916e+00
4.199999999999999845e-01 2.311136179508281874e+00
4.400000000000000022e-01 2.307219946669624377e+00
4.600000000000000200e-01 2.303239836360357007e+00
4.799999999999999822e-01 2.299196452574152616e+00
5.000000000000000000e-01 2.295090409082607863e+00
5.200000000000000178e-01 2.290922323933801241e+00
5.400000000000000355e-01 2.286692824625168097e+00
5.600000000000000533e-01 2.282402542430796544e+00
5.799999999999999600e-01 2.278052117740056115e+00
5.999999999999999778e-01 2.273642194217595502e+00
6.199999999999999956e-01 2.269173424304479436e+00
6.400000000000000133e-01 2.264646463215328698e+00
6.600000000000000311e-01 2.260061974598586598e+00
6.800000000000000488e-01 2.255420624374948613e+00
7.000000000000000666e-01 2.250723086553412688e+00
7.199999999999999734e-01 2.245970036915343027e+00
7.399999999999999911e-01 2.241162158982908270e+00
7.600000000000000089e-01 2.236300137553013379e+00
7.800000000000000266e-01 2.231384664814685337e+00
8.000000000000000444e-01 2.226416433737253175e+00
8.200000000000000622e-01 2.221396144333135592e+00
8.399999999999999689e-01 2.216324496904654051e+00
8.599999999999999867e-01 2.211202198448609213e+00
8.800000000000000044e-01 2.206029955766219963e+00
9.000000000000000222e-01 2.200808482005744526e+00
9.200000000000000400e-01 2.195538489640088908e+00
9.400000000000000577e-01 2.190220697143682393e+00
9.599999999999999645e-01 2.184855821842326407e+00
9.799999999999999822e-01 2.179444586720423960e+00
1.000000000000000000e+00 2.173987713147765177e+00
1.020000000000000018e+00 2.168485927813079250e+00
1.040000000000000036e+00 2.162939955332487063e+00
1.060000000000000053e+00 2.157350525305277156e+00
1.080000000000000071e+00 2.151718364808839823e+00
1.100000000000000089e+00 2.146044205572431807e+00
1.120000000000000107e+00 2.140328776363485730e+00
1.140000000000000124e+00 2.134572810275024324e+00
1.159999999999999920e+00 2.128777037008310558e+00
1.179999999999999938e+00 2.122942190269472729e+00
1.199999999999999956e+00 2.117068999953511277e+00
1.219999999999999973e+00 2.111158199645603251e+00
1.239999999999999991e+00 2.105210518711540857e+00
1.260000000000000009e+00 2.099226689899092779e+00
1.280000000000000027e+00 2.093207441340016128e+00
1.300000000000000044e+00 2.087153504246712643e+00
1.320000000000000062e+00 2.081065604831058291e+00
1.340000000000000080e+00 2.074944472091496461e+00
1.360000000000000098e+00 2.068790829653970320e+00
1.380000000000000115e+00 2.062605403644485857e+00
1.400000000000000133e+00 2.056388914457505823e+00
1.419999999999999929e+00 2.050142084708936885e+00
1.439999999999999947e+00 2.043865630937383049e+00
1.459999999999999964e+00 2.037560271632396169e+00
1.479999999999999982e+00 2.031226718874082682e+00
1.500000000000000000e+00 2.024865686431351453e+00
1.520000000000000018e+00 2.018477881345415170e+00
1.540000000000000036e+00 2.012064012092664278e+00
1.560000000000000053e+00 2.005624780117676753e+00
1.580000000000000071e+00 1.999160888055276697e+00
1.600000000000000089e+00 1.992673031218695545e+00
1.620000000000000107e+00 1.986161905875263090e+00
1.640000000000000124e+00 1.979628200695458418e+00
1.660000000000000142e+00 1.973072605076590325e+00
1.679999999999999938e+00 1.966495800558502038e+00
1.699999999999999956e+00 1.959898469189512937e+00
1.719999999999999973e+00 1.953281284914626825e+00
1.739999999999999991e+00 1.946644921977909837e+00
1.760000000000000009e+00 1.939990046289093995e+00
1.780000000000000027e+00 1.933317323856460268e+00
1.800000000000000044e+00 1.926627412137821960e+00
1.820000000000000062e+00 1.919920968497906388e+00
1.840000000000000080e+00 1.913198641549726187e+00
1.860000000000000098e+00 1.906461079630365596e+00
1.880000000000000115e+00 1.899708922138815481e+00
1.900000000000000133e+00 1.892942808024018486e+00
1.919999999999999929e+00 1.886163367125256007e+00
1.939999999999999947e+00 1.879371228666211868e+00
1.959999999999999964e+00 1.872567012604122505e+00
1.979999999999999982e+00 1.865751338123495584e+00
2.000000000000000000e+00 1.858924815000265296e+00
2.020000000000000018e+00 1.852088052088774139e+00
2.040000000000000036e+00 1.845241648707216964e+00
2.060000000000000053e+00 1.838386203111408657e+00
2.080000000000000071e+00 1.831522303907842764e+00
2.100000000000000089e+00 1.824650538507700315e+00
2.120000000000000107e+00 1.817771484573942331e+00
2.140000000000000124e+00 1.810885718448911996e+00
2.160000000000000142e+00 1.803993806641907671e+00
2.180000000000000160e+00 1.797096314223687097e+00
2.200000000000000178e+00 1.790193796361035927e+00
2.220000000000000195e+00 1.783286806671405822e+00
2.240000000000000213e+00 1.776375888811025039e+00
2.260000000000000231e+00 1.769461584782847652e+00
2.280000000000000249e+00 1.762544426584814472e+00
2.300000000000000266e+00 1.755624944464218684e+00
2.319999999999999840e+00 1.748703658632775548e+00
2.339999999999999858e+00 1.741781087460445798e+00
2.359999999999999876e+00 1.734857739264030974e+00
2.379999999999999893e+00 1.727934120433440635e+00
2.399999999999999911e+00 1.721010727300561705e+00
2.419999999999999929e+00 1.714088054190891164e+00
2.439999999999999947e+00 1.707166585379511270e+00
2.459999999999999964e+00 1.700246803060947220e+00
2.479999999999999982e+00 1.693329179399092776e+00
2.500000000000000000e+00 1.686414184408117078e+00
2.520000000000000018e+00 1.679502278103254254e+00
2.540000000000000036e+00 1.672593918285519399e+00
2.560000000000000053e+00 1.665689552800309725e+00
2.580000000000000071e+00 1.658789627218631768e+00
2.600000000000000089e+00 1.651894577210530235e+00
2.620000000000000107e+00 1.645004836115490310e+00
2.640000000000000124e+00 1.638120827437734350e+00
2.660000000000000142e+00 1.631242972298397653e+00
2.680000000000000160e+00 1.624371682059815525e+00
2.700000000000000178e+00 1.617507365652032236e+00
2.720000000000000195e+00 1.610650422333197884e+00
2.740000000000000213e+00 1.603801248882933184e+00
2.760000000000000231e+00 1.596960232506053012e+00
2.780000000000000249e+00 1.590127757885245297e+00
2.800000000000000266e+00 1.583304200235333026e+00
2.819999999999999840e+00 1.576489932207717048e+00
2.839999999999999858e+00 1.569685317102458733e+00
2.859999999999999876e+00 1.562890715616872761e+00
2.879999999999999893e+00 1.556106479222746364e+00
2.899999999999999911e+00 1.549332956751413803e+00
2.919999999999999929e+00 1.542570487943522695e+00
2.939999999999999947e+00 1.535819409862865692e+00
2.959999999999999964e+00 1.529080050626094200e+00
2.979999999999999982e+00 1.522352735637596322e+00
3.000000000000000000e+00 1.515637781506612658e+00
3.020000000000000018e+00 1.508935502095391623e+00
3.040000000000000036e+00 1.502246202631186689e+00
3.060000000000000053e+00 1.495570185559877308e+00
3.080000000000000071e+00 1.488907744860421101e+00
3.100000000000000089e+00 1.482259171696077349e+00
3.120000000000000107e+00 1.475624748938880737e+00
3.140000000000000124e+00 1.469004756610603701e+00
3.160000000000000142e+00 1.462399466624883182e+00
3.180000000000000160e+00 1.455809148009994392e+00
3.200000000000000178e+00 1.449234061876287782e+00
3.220000000000000195e+00 1.442674466412851908e+00
3.240000000000000213e+00 1.436130612087941572e+00
3.260000000000000231e+00 1.429602746411551939e+00
3.280000000000000249e+00 1.423091109376599883e+00
3.300000000000000266e+00 1.416595937979378217e+00
3.320000000000000284e+00 1.410117461909279113e+00
3.339999999999999858e+00 1.403655907819092441e+00
3.359999999999999876e+00 1.397211495271081239e+00
3.379999999999999893e+00 1.390784440749051054e+00
3.399999999999999911e+00 1.384374953868657832e+00
3.419999999999999929e+00 1.377983241123123204e+00
3.439999999999999947e+00 1.371609502365658706e+00
3.459999999999999964e+00 1.365253934280739934e+00
3.479999999999999982e+00 1.358916727146552539e+00
3.500000000000000000e+00 1.352598068023648459e+00
3.520000000000000018e+00 1.346298137805406192e+00
3.540000000000000036e+00 1.340017114115896302e+00
3.560000000000000053e+00 1.333755168656338919e+00
3.580000000000000071e+00 1.327512469803937556e+00
3.600000000000000089e+00 1.321289180262420260e+00
3.620000000000000107e+00 1.315085459353598996e+00
3.640000000000000124e+00 1.308901460980033349e+00
3.660000000000000142e+00 1.302737335601067636e+00
3.680000000000000160e+00 1.296593228515741103e+00
3.700000000000000178e+00 1.290469281514974087e+00
3.720000000000000195e+00 1.284365631492893955e+00
3.740000000000000213e+00 1.278282411766853643e+00
3.760000000000000231e+00 1.272219751025327472e+00
3.780000000000000249e+00 1.266177774307434056e+00
3.800000000000000266e+00 1.260156602295612771e+00
3.820000000000000284e+00 1.254156351946256631e+00
3.839999999999999858e+00 1.248177136135446785e+00
3.859999999999999876e+00 1.242219063932285206e+00
3.879999999999999893e+00 1.236282240605956817e+00
3.899999999999999911e+00 1.230366767533328742e+00
3.919999999999999929e+00 1.224472742575683837e+00
3.939999999999999947e+00 1.218600259612119485e+00
3.959999999999999964e+00 1.212749409294288983e+00
3.979999999999999982e+00 1.206920278197120666e+00
4.000000000000000000e+00 1.201112949959982412e+00
4.020000000000000462e+00 1.195327504046183265e+00
4.040000000000000036e+00 1.189564017278966990e+00
4.060000000000000497e+00 1.183822562201288564e+00
4.080000000000000071e+00 1.178103209015081809e+00
4.099999999999999645e+00 1.172406023532752473e+00
4.120000000000000107e+00 1.166731069528190723e+00
4.139999999999999680e+00 1.161078406271375485e+00
4.160000000000000142e+00 1.155448091299699831e+00
4.179999999999999716e+00 1.149840177527050367e+00
4.200000000000000178e+00 1.144254716443965814e+00
4.219999999999999751e+00 1.138691754792567012e+00
4.240000000000000213e+00 1.133151338204165359e+00
4.259999999999999787e+00 1.127633507431344162e+00
4.280000000000000249e+00 1.122138302431612278e+00
4.299999999999999822e+00 1.116665758147960430e+00
4.320000000000000284e+00 1.111215909047240880e+00
4.339999999999999858e+00 1.105788784440423056e+00
4.360000000000000320e+00 1.100384413484416957e+00
4.379999999999999893e+00 1.095002820033254221e+00
4.400000000000000355e+00 1.089644028112074947e+00
4.419999999999999929e+00 1.084308056290476108e+00
4.440000000000000391e+00 1.078994923637378145e+00
4.459999999999999964e+00 1.073704643607730880e+00
4.480000000000000426e+00 1.068437230487096823e+00
4.500000000000000000e+00 1.063192692782808146e+00
4.520000000000000462e+00 1.057971040167112076e+00
4.540000000000000036e+00 1.052772276363920900e+00
4.560000000000000497e+00 1.047596406599362595e+00
4.580000000000000071e+00 1.042443429975211888e+00
4.600000000000000533e+00 1.037313347435752986e+00
4.620000000000000107e+00 1.032206153618927535e+00
4.639999999999999680e+00 1.027121845348481388e+00
4.660000000000000142e+00 1.022060412953838870e+00
4.679999999999999716e+00 1.017021849296487090e+00
4.700000000000000178e+00 1.012006140549569055e+00
4.719999999999999751e+00 1.007013275767552507e+00
4.740000000000000213e+00 1.002043237116460928e+00
4.759999999999999787e+00 9.970960099958806611e-01
4.780000000000000249e+00 9.921715727107470739e-01
4.799999999999999822e+00 9.872699071548016736e-01
4.820000000000000284e+00 9.823909879147996183e-01
4.839999999999999858e+00 9.775347935245367603e-01
4.860000000000000320e+00 9.727012949923309337e-01
4.879999999999999893e+00 9.678904676347912517e-01
4.900000000000000355e+00 9.631022790183808580e-01
4.919999999999999929e+00 9.583367013821425529e-01
4.940000000000000391e+00 9.535936989840843037e-01
4.959999999999999964e+00 9.488732411221435514e-01
4.980000000000000426e+00 9.441752888761201223e-01
5.000000000000000000e+00 9.394998087361615680e-01
5.020000000000000462e+00 9.348467587309275961e-01
5.040000000000000036e+00 9.302161026729549587e-01
5.060000000000000497e+00 9.256077956636873383e-01
5.080000000000000071e+00 9.210217989650959503e-01
5.100000000000000533e+00 9.164580648721781797e-01
5.120000000000000107e+00 9.119165522202823393e-01
5.139999999999999680e+00 9.073972106156114048e-01
5.160000000000000142e+00 9.028999965877321232e-01
5.179999999999999716e+00 8.984248571685948814e-01
5.200000000000000178e+00 8.939717466997604278e-01
5.219999999999999751e+00 8.895406097503971710e-01
5.240000000000000213e+00 8.851313985887925284e-01
5.259999999999999787e+00 8.807440554297326640e-01
5.280000000000000249e+00 8.763785305799424163e-01
5.299999999999999822e+00 8.720347640052289462e-01
5.320000000000000284e+00 8.677127041594828727e-01
5.339999999999999858e+00 8.634122888619162328e-01
5.360000000000000320e+00 8.591334648193783563e-01
5.379999999999999893e+00 8.548761678039230594e-01
5.400000000000000355e+00 8.506403428782252085e-01
5.419999999999999929e+00 8.464259238636938631e-01
5.440000000000000391e+00 8.422328542788262151e-01
5.459999999999999964e+00 8.380610660880297713e-01
5.480000000000000426e+00 8.339105013627801100e-01
5.500000000000000000e+00 8.297810903012747819e-01
5.520000000000000462e+00 8.256727736223395953e-01
5.540000000000000036e+00 8.215854798459532038e-01
5.560000000000000497e+00 8.175191484299160205e-01
5.580000000000000071e+00 8.134737063012289493e-01
5.600000000000000533e+00 8.094490917455694490e-01
5.620000000000000107e+00 8.054452301794995384e-01
5.639999999999999680e+00 8.014620588028341652e-01
5.660000000000000142e+00 7.974995016015506977e-01
5.679999999999999716e+00 7.935574947732515483e-01
5.700000000000000178e+00 7.896359609505727573e-01
5.719999999999999751e+00 7.857348354099821242e-01
5.740000000000000213e+00 7.818540395054569547e-01
5.759999999999999787e+00 7.779935076708935915e-01
5.780000000000000249e+00 7.741531600537565616e-01
5.799999999999999822e+00 7.703329303214738744e-01
5.820000000000000284e+00 7.665327374846814257e-01
5.839999999999999858e+00 7.627525145180180655e-01
5.860000000000000320e+00 7.589921793625408197e-01
5.879999999999999893e+00 7.552516643714194400e-01
5.900000000000000355e+00 7.515308864810138489e-01
5.919999999999999929e+00 7.478297774920218410e-01
5.940000000000000391e+00 7.441482533986591985e-01
5.959999999999999964e+00 7.404862455158924828e-01
5.980000000000000426e+00 7.368436689560673436e-01
6.000000000000000000e+00 7.332204546129402756e-01
6.020000000000000462e+00 7.296165167750431335e-01
6.040000000000000036e+00 7.260317859772726923e-01
6.060000000000000497e+00 7.224661757402309759e-01
6.080000000000000071e+00 7.189196163002022910e-01
6.100000000000000533e+00 7.153920204635954017e-01
6.120000000000000107e+00 7.118833182262713777e-01
6.140000000000000568e+00 7.083934217321304905e-01
6.160000000000000142e+00 7.049222607927663198e-01
6.179999999999999716e+00 7.014697469392202622e-01
6.200000000000000178e+00 6.980358098530318189e-01
6.219999999999999751e+00 6.946203605000460524e-01
6.240000000000000213e+00 6.912233284840391123e-01
6.259999999999999787e+00 6.878446242514132392e-01
6.280000000000000249e+00 6.844841773786080052e-01
6.299999999999999822e+00 6.811418978364345289e-01
6.320000000000000284e+00 6.778177152226121382e-01
6.339999999999999858e+00 6.745115390743957606e-01
6.360000000000000320e+00 6.712232990576258995e-01
6.379999999999999893e+00 6.679529043162462099e-01
6.400000000000000355e+00 6.647002846293478262e-01
6.419999999999999929e+00 6.614653487860626679e-01
6.440000000000000391e+00 6.582480267221898496e-01
6.459999999999999964e+00 6.550482269088663267e-01
6.480000000000000426e+00 6.518658794804257361e-01
6.500000000000000000e+00 6.487008926251761620e-01
6.520000000000000462e+00 6.455531967162386753e-01
6.540000000000000036e+00 6.424226996926524214e-01
6.560000000000000497e+00 6.393093322050400484e-01
6.580000000000000071e+00 6.362130019751814913e-01
6.600000000000000533e+00 6.331336399684338589e-01
6.620000000000000107e+00 6.300711537198028234e-01
6.640000000000000568e+00 6.270254745451609990e-01
6.660000000000000142e+00 6.239965098217651329e-01
6.679999999999999716e+00 6.209841912503794026e-01
6.700000000000000178e+00 6.179884260781007832e-01
6.719999999999999751e+00 6.150091464236090433e-01
6.740000000000000213e+00 6.120462594300426495e-01
6.759999999999999787e+00 6.090996976656981587e-01
6.780000000000000249e+00 6.061693681946138668e-01
6.799999999999999822e+00 6.032552040651274483e-01
6.820000000000000284e+00 6.003571122857195297e-01
6.839999999999999858e+00 5.974750264139595535e-01
6.860000000000000320e+00 5.946088534250517643e-01
6.879999999999999893e+00 5.917585274137864282e-01
6.900000000000000355e+00 5.889239553431393492e-01
6.919999999999999929e+00 5.861050718719539310e-01
6.940000000000000391e+00 5.833017839708370955e-01
6.959999999999999964e+00 5.805140268883861587e-01
6.980000000000000426e+00 5.777417076215416447e-01
7.000000000000000000e+00 5.749847620332857456e-01
7.020000000000000462e+00 5.722430971644677511e-01
7.040000000000000036e+00 5.695166495160338682e-01
7.060000000000000497e+00 5.668053261892361805e-01
7.080000000000000071e+00 5.641090643455427545e-01
7.100000000000000533e+00 5.614277711620581091e-01
7.120000000000000107e+00 5.587613844823579035e-01
7.140000000000000568e+00 5.561098115738212222e-01
7.160000000000000142e+00 5.534729909827754701e-01
7.179999999999999716e+00 5.508508300803149904e-01
7.200000000000000178e+00 5.482432681352441550e-01
7.219999999999999751e+00 5.456502126348661275e-01
7.240000000000000213e+00 5.430716035893096150e-01
7.259999999999999787e+00 5.405073486136544592e-01
7.280000000000000249e+00 5.379573884773530823e-01
7.299999999999999822e+00 5.354216309339340230e-01
7.320000000000000284e+00 5.329000175293562291e-01
7.339999999999999858e+00 5.303924561654200787e-01
7.360000000000000320e+00 5.278988891809818229e-01
7.379999999999999893e+00 5.254192246350959383e-01
7.400000000000000355e+00 5.229534056751442561e-01
7.419999999999999929e+00 5.205013405256175840e-01
7.440000000000000391e+00 5.180629731573330732e-01
7.459999999999999964e+00 5.156382119676117259e-01
7.480000000000000426e+00 5.132270017649046556e-01
7.500000000000000000e+00 5.108292511260191793e-01
7.520000000000000462e+00 5.084449057105575598e-01
7.540000000000000036e+00 5.060738742807510127e-01
7.560000000000000497e+00 5.037161033602214344e-01
7.580000000000000071e+00 5.013715019018439856e-01
7.600000000000000533e+00 4.990400173055040689e-01
7.620000000000000107e+00 4.967215587192885251e-01
7.640000000000000568e+00 4.944160744309916700e-01
7.660000000000000142e+00 4.921234737878055765e-01
7.679999999999999716e+00 4.898437059765017865e-01
7.700000000000000178e+00 4.875766805466629217e-01
7.719999999999999751e+00 4.853223475945412924e-01
7.740000000000000213e+00 4.830806168747878715e-01
7.759999999999999787e+00 4.808514394031189187e-01
7.780000000000000249e+00 4.786347251413441417e-01
7.799999999999999822e+00 4.764304260341124531e-01
7.820000000000000284e+00 4.742384522519236256e-01
7.839999999999999858e+00 4.720587566773377097e-01
7.860000000000000320e+00 4.698912496905403580e-01
7.879999999999999893e+00 4.677358851205141166e-01
