# Electrodo circular de radio 6 mm y espesor 710.0 um.
# Volumen de simulacion (convencion z,y,x):
# N: 1024 x 1024 x 1024 | voxelSize:  0.02mm x 0.02mm x 0.02mm | FOV:  20.48mm x 20.48mm x 20.48mm
# 
# z [mm]		 delta[ppm]
0.000000000000000000e+00 2.793272161477026838e+00
2.000000000000000042e-02 2.787946580844612221e+00
4.000000000000000083e-02 2.782471144803691399e+00
5.999999999999999778e-02 2.776847708173197038e+00
8.000000000000000167e-02 2.771078235500412212e+00
1.000000000000000056e-01 2.765164748985122767e+00
1.199999999999999956e-01 2.759109301366138300e+00
1.400000000000000133e-01 2.752913984716573559e+00
1.600000000000000033e-01 2.746580920171874496e+00
1.799999999999999933e-01 2.740112263950674087e+00
2.000000000000000111e-01 2.733510198506388100e+00
2.200000000000000011e-01 2.726776938026250541e+00
2.399999999999999911e-01 2.719914719348805132e+00
2.600000000000000089e-01 2.712925807665667488e+00
2.800000000000000266e-01 2.705812487288282053e+00
2.999999999999999889e-01 2.698577067601157342e+00
3.200000000000000067e-01 2.691221873511954410e+00
3.400000000000000244e-01 2.683749251713255735e+00
3.599999999999999867e-01 2.676161560896604286e+00
3.800000000000000044e-01 2.668461178328460637e+00
4.000000000000000222e-01 2.660650489766887450e+00
4.199999999999999845e-01 2.652731896371029574e+00
4.400000000000000022e-01 2.644707804372911752e+00
4.600000000000000200e-01 2.636580632323020090e+00
4.799999999999999822e-01 2.628352800487761876e+00
5.000000000000000000e-01 2.620026738440163872e+00
5.200000000000000178e-01 2.611604874220514461e+00
5.400000000000000355e-01 2.603089642273172633e+00
5.600000000000000533e-01 2.594483472354772058e+00
5.799999999999999600e-01 2.585788797821473306e+00
5.999999999999999778e-01 2.577008044313174651e+00
6.199999999999999956e-01 2.568143638390859795e+00
6.400000000000000133e-01 2.559197995988163221e+00
6.600000000000000311e-01 2.550173531400154125e+00
6.800000000000000488e-01 2.541072645524763196e+00
7.000000000000000666e-01 2.531897735201201094e+00
7.199999999999999734e-01 2.522651181236422957e+00
7.399999999999999911e-01 2.513335358092293248e+00
7.600000000000000089e-01 2.503952621715276106e+00
7.800000000000000266e-01 2.494505319569137569e+00
8.000000000000000444e-01 2.484995778265240762e+00
8.200000000000000622e-01 2.475426313938001055e+00
8.399999999999999689e-01 2.465799219690739896e+00
8.599999999999999867e-01 2.456116776309349881e+00
8.800000000000000044e-01 2.446381239522364748e+00
9.000000000000000222e-01 2.436594851048384136e+00
9.200000000000000400e-01 2.426759825682852867e+00
9.400000000000000577e-01 2.416878362673454461e+00
9.599999999999999645e-01 2.406952632632971767e+00
9.799999999999999822e-01 2.396984789236830338e+00
1.000000000000000000e+00 2.386976955972594627e+00
1.020000000000000018e+00 2.376931238152698356e+00
1.040000000000000036e+00 2.366849709500456367e+00
1.060000000000000053e+00 2.356734424470956046e+00
1.080000000000000071e+00 2.346587404682618949e+00
1.100000000000000089e+00 2.336410651538311622e+00
1.120000000000000107e+00 2.326206132502680379e+00
1.140000000000000124e+00 2.315975794015441735e+00
1.159999999999999920e+00 2.305721547622372913e+00
1.179999999999999938e+00 2.295445283172008466e+00
1.199999999999999956e+00 2.285148854800809648e+00
1.219999999999999973e+00 2.274834094404412088e+00
1.239999999999999991e+00 2.264502797483978647e+00
1.260000000000000009e+00 2.254156736882586998e+00
1.280000000000000027e+00 2.243797648493563557e+00
1.300000000000000044e+00 2.233427245252516347e+00
1.320000000000000062e+00 2.223047202714074633e+00
1.340000000000000080e+00 2.212659173289611036e+00
1.360000000000000098e+00 2.202264771693539291e+00
1.380000000000000115e+00 2.191865589416743365e+00
1.400000000000000133e+00 2.181463180048463180e+00
1.419999999999999929e+00 2.171059073975122100e+00
1.439999999999999947e+00 2.160654763579314519e+00
1.459999999999999964e+00 2.150251718153722180e+00
1.479999999999999982e+00 2.139851368983022084e+00
1.500000000000000000e+00 2.129455124462345417e+00
1.520000000000000018e+00 2.119064355064049554e+00
1.540000000000000036e+00 2.108680408650193794e+00
1.560000000000000053e+00 2.098304595329927746e+00
1.580000000000000071e+00 2.087938202955325284e+00
1.600000000000000089e+00 2.077582481871777187e+00
1.620000000000000107e+00 2.067238660586571353e+00
1.640000000000000124e+00 2.056907930418106822e+00
1.660000000000000142e+00 2.046591461326510597e+00
1.679999999999999938e+00 2.036290386464544078e+00
1.699999999999999956e+00 2.026005818159657856e+00
1.719999999999999973e+00 2.015738832372544920e+00
1.739999999999999991e+00 2.005490484819954400e+00
1.760000000000000009e+00 1.995261795344295708e+00
1.780000000000000027e+00 1.985053764166646362e+00
1.800000000000000044e+00 1.974867356173576116e+00
1.820000000000000062e+00 1.964703517289781987e+00
1.840000000000000080e+00 1.954563158686047464e+00
1.860000000000000098e+00 1.944447173261044215e+00
1.880000000000000115e+00 1.934356419776859459e+00
1.900000000000000133e+00 1.924291739439536464e+00
1.919999999999999929e+00 1.914253939966575224e+00
1.939999999999999947e+00 1.904243812255929980e+00
1.959999999999999964e+00 1.894262114392191387e+00
1.979999999999999982e+00 1.884309588393749735e+00
2.000000000000000000e+00 1.874386944162597768e+00
2.020000000000000018e+00 1.864494876299535919e+00
2.040000000000000036e+00 1.854634048004581759e+00
2.060000000000000053e+00 1.844805107950132861e+00
2.080000000000000071e+00 1.835008674137383888e+00
2.100000000000000089e+00 1.825245350817487067e+00
2.120000000000000107e+00 1.815515712311281282e+00
2.140000000000000124e+00 1.805820319968554521e+00
2.160000000000000142e+00 1.796159705956915431e+00
2.180000000000000160e+00 1.786534390249373772e+00
2.200000000000000178e+00 1.776944864389969236e+00
2.220000000000000195e+00 1.767391608499934597e+00
2.240000000000000213e+00 1.757875075026338552e+00
2.260000000000000231e+00 1.748395705757233909e+00
2.280000000000000249e+00 1.738953915561165298e+00
2.300000000000000266e+00 1.729550109401762015e+00
2.319999999999999840e+00 1.720184666074749291e+00
2.339999999999999858e+00 1.710857955212548687e+00
2.359999999999999876e+00 1.701570321026895760e+00
2.379999999999999893e+00 1.692322099294062854e+00
2.399999999999999911e+00 1.683113601110068469e+00
2.419999999999999929e+00 1.673945129847227875e+00
2.439999999999999947e+00 1.664816964930294407e+00
2.459999999999999964e+00 1.655729378755095738e+00
2.479999999999999982e+00 1.646682620492887494e+00
2.500000000000000000e+00 1.637676932961932508e+00
2.520000000000000018e+00 1.628712536468593708e+00
2.540000000000000036e+00 1.619789645622748520e+00
2.560000000000000053e+00 1.610908453223173220e+00
2.580000000000000071e+00 1.602069147007768146e+00
2.600000000000000089e+00 1.593271893591916344e+00
2.620000000000000107e+00 1.584516855144550984e+00
2.640000000000000124e+00 1.575804173387264084e+00
2.660000000000000142e+00 1.567133986187289052e+00
2.680000000000000160e+00 1.558506411626202182e+00
2.700000000000000178e+00 1.549921564500945204e+00
2.720000000000000195e+00 1.541379540470080522e+00
2.740000000000000213e+00 1.532880432454027275e+00
2.760000000000000231e+00 1.524424314867844021e+00
2.780000000000000249e+00 1.516011259911874687e+00
2.800000000000000266e+00 1.507641321899180875e+00
2.819999999999999840e+00 1.499314553427875341e+00
2.839999999999999858e+00 1.491030989812239138e+00
2.859999999999999876e+00 1.482790665128034702e+00
2.879999999999999893e+00 1.474593596755564784e+00
2.899999999999999911e+00 1.466439801289291855e+00
2.919999999999999929e+00 1.458329279201977968e+00
2.939999999999999947e+00 1.450262030609933417e+00
2.959999999999999964e+00 1.442238040066611271e+00
2.979999999999999982e+00 1.434257292174893728e+00
3.000000000000000000e+00 1.426319756519291104e+00
3.020000000000000018e+00 1.418425403116677419e+00
3.040000000000000036e+00 1.410574187495546861e+00
3.060000000000000053e+00 1.402766065976632781e+00
3.080000000000000071e+00 1.395000980908428279e+00
3.100000000000000089e+00 1.387278875769136555e+00
3.120000000000000107e+00 1.379599680566964803e+00
3.140000000000000124e+00 1.371963326754900070e+00
3.160000000000000142e+00 1.364369732804989743e+00
3.180000000000000160e+00 1.356818818927425285e+00
3.200000000000000178e+00 1.349310492827367813e+00
3.220000000000000195e+00 1.341844664219887351e+00
3.240000000000000213e+00 1.334421230778514600e+00
3.260000000000000231e+00 1.327040092437566488e+00
3.280000000000000249e+00 1.319701137541035019e+00
3.300000000000000266e+00 1.312404256923841217e+00
3.320000000000000284e+00 1.305149330270252150e+00
3.339999999999999858e+00 1.297936239965635785e+00
3.359999999999999876e+00 1.290764857673005084e+00
3.379999999999999893e+00 1.283635057946850511e+00
3.399999999999999911e+00 1.276546705037003626e+00
3.419999999999999929e+00 1.269499666256130643e+00
3.439999999999999947e+00 1.262493799019496432e+00
3.459999999999999964e+00 1.255528963957772470e+00
3.479999999999999982e+00 1.248605012201824627e+00
3.500000000000000000e+00 1.241721798232438223e+00
3.520000000000000018e+00 1.234879167418742263e+00
3.540000000000000036e+00 1.228076968596504948e+00
3.560000000000000053e+00 1.221315041869277307e+00
3.580000000000000071e+00 1.214593230906885202e+00
3.600000000000000089e+00 1.207911371017906133e+00
3.620000000000000107e+00 1.201269301160024394e+00
3.640000000000000124e+00 1.194666852292864290e+00
3.660000000000000142e+00 1.188103859091900860e+00
3.680000000000000160e+00 1.181580148590209101e+00
3.700000000000000178e+00 1.175095551587599818e+00
3.720000000000000195e+00 1.168649891590308298e+00
3.740000000000000213e+00 1.162242995907048604e+00
3.760000000000000231e+00 1.155874684895157767e+00
3.780000000000000249e+00 1.149544782735297144e+00
3.800000000000000266e+00 1.143253106992988988e+00
3.820000000000000284e+00 1.136999479063686147e+00
3.839999999999999858e+00 1.130783714058216205e+00
3.859999999999999876e+00 1.124605630909934595e+00
3.879999999999999893e+00 1.118465042592974745e+00
3.899999999999999911e+00 1.112361765883234099e+00
3.919999999999999929e+00 1.106295611917891497e+00
3.939999999999999947e+00 1.100266395601978475e+00
3.959999999999999964e+00 1.094273926518009699e+00
3.979999999999999982e+00 1.088318017969900797e+00
4.000000000000000000e+00 1.082398478251146878e+00
4.020000000000000462e+00 1.076515119317856151e+00
4.040000000000000036e+00 1.070667748424253052e+00
4.060000000000000497e+00 1.064856176416635769e+00
4.080000000000000071e+00 1.059080209744585499e+00
4.099999999999999645e+00 1.053339658367647313e+00
4.120000000000000107e+00 1.047634328150965244e+00
4.139999999999999680e+00 1.041964028376500817e+00
4.160000000000000142e+00 1.036328564531458385e+00
4.179999999999999716e+00 1.030727745415848995e+00
4.200000000000000178e+00 1.025161376332377694e+00
4.219999999999999751e+00 1.019629265782192373e+00
4.240000000000000213e+00 1.014131219064552614e+00
4.259999999999999787e+00 1.008667044552588266e+00
4.280000000000000249e+00 1.003236547711367388e+00
4.299999999999999822e+00 9.978395369455418384e-01
4.320000000000000284e+00 9.924758180440809152e-01
4.339999999999999858e+00 9.871451995916361577e-01
4.360000000000000320e+00 9.818474878485600188e-01
4.379999999999999893e+00 9.765824917178399511e-01
4.400000000000000355e+00 9.713500180686183150e-01
4.419999999999999929e+00 9.661498762506098847e-01
4.440000000000000391e+00 9.609818738696245255e-01
4.459999999999999964e+00 9.558458208413701529e-01
4.480000000000000426e+00 9.507415256272025994e-01
4.500000000000000000e+00 9.456687988191475602e-01
4.520000000000000462e+00 9.406274498444077148e-01
4.540000000000000036e+00 9.356172900735333364e-01
4.560000000000000497e+00 9.306381300018059521e-01
4.580000000000000071e+00 9.256897818724697524e-01
4.600000000000000533e+00 9.207720573434742262e-01
4.620000000000000107e+00 9.158847696176638520e-01
4.639999999999999680e+00 9.110277316030246375e-01
4.660000000000000142e+00 9.062007575417454497e-01
4.679999999999999716e+00 9.014036616723900552e-01
4.700000000000000178e+00 8.966362593497615441e-01
4.719999999999999751e+00 8.918983662171194871e-01
4.740000000000000213e+00 8.871897988087453779e-01
4.759999999999999787e+00 8.825103742406298357e-01
4.780000000000000249e+00 8.778599102876559757e-01
4.799999999999999822e+00 8.732382256008591748e-01
4.820000000000000284e+00 8.686451392511507219e-01
4.839999999999999858e+00 8.640804714815183418e-01
4.860000000000000320e+00 8.595440427092406743e-01
4.879999999999999893e+00 8.550356748210963254e-01
4.900000000000000355e+00 8.505551896259851974e-01
4.919999999999999929e+00 8.461024107015311380e-01
4.940000000000000391e+00 8.416771612890263654e-01
4.959999999999999964e+00 8.372792666994954836e-01
4.980000000000000426e+00 8.329085516428819114e-01
5.000000000000000000e+00 8.285648432019359078e-01
5.020000000000000462e+00 8.242479675875645784e-01
5.040000000000000036e+00 8.199577536886005769e-01
5.060000000000000497e+00 8.156940292452221630e-01
5.080000000000000071e+00 8.114566249829695543e-01
5.100000000000000533e+00 8.072453701961381789e-01
5.120000000000000107e+00 8.030600974741047837e-01
5.139999999999999680e+00 7.989006376865803727e-01
5.160000000000000142e+00 7.947668253106269232e-01
5.179999999999999716e+00 7.906584928096466180e-01
5.200000000000000178e+00 7.865754765691574946e-01
5.219999999999999751e+00 7.825176106614010196e-01
5.240000000000000213e+00 7.784847333982506390e-01
5.259999999999999787e+00 7.744766804732873267e-01
5.280000000000000249e+00 7.704932921399392232e-01
5.299999999999999822e+00 7.665344057228857810e-01
5.320000000000000284e+00 7.625998634297956880e-01
5.339999999999999858e+00 7.586895042238993581e-01
5.360000000000000320e+00 7.548031722774523056e-01
5.379999999999999893e+00 7.509407081972615527e-01
5.400000000000000355e+00 7.471019581283161459e-01
5.419999999999999929e+00 7.432867643240529398e-01
5.440000000000000391e+00 7.394949749082940782e-01
5.459999999999999964e+00 7.357264337820331734e-01
5.480000000000000426e+00 7.319809910521224428e-01
5.500000000000000000e+00 7.282584922663333238e-01
5.520000000000000462e+00 7.245587895169770531e-01
5.540000000000000036e+00 7.208817299959535685e-01
5.560000000000000497e+00 7.172271677818211622e-01
5.580000000000000071e+00 7.135949517065135472e-01
5.600000000000000533e+00 7.099849378340784556e-01
5.620000000000000107e+00 7.063969766307658382e-01
5.639999999999999680e+00 7.028309261439515954e-01
5.660000000000000142e+00 6.992866384672382640e-01
5.679999999999999716e+00 6.957639736278626863e-01
5.700000000000000178e+00 6.922627853383910290e-01
5.719999999999999751e+00 6.887829356012382664e-01
5.740000000000000213e+00 6.853242797385263874e-01
5.759999999999999787e+00 6.818866817220425869e-01
5.780000000000000249e+00 6.784699984728029820e-01
5.799999999999999822e+00 6.750740959251365636e-01
5.820000000000000284e+00 6.716988325874487797e-01
5.839999999999999858e+00 6.683440763488278646e-01
5.860000000000000320e+00 6.650096872924700087e-01
5.879999999999999893e+00 6.616955352535789370e-01
5.900000000000000355e+00 6.584014818768524346e-01
5.919999999999999929e+00 6.551273989341611648e-01
5.940000000000000391e+00 6.518731496174759998e-01
5.959999999999999964e+00 6.486386076251703381e-01
5.980000000000000426e+00 6.454236376816913090e-01
6.000000000000000000e+00 6.422281154010833770e-01
6.020000000000000462e+00 6.390519070246724054e-01
6.040000000000000036e+00 6.358948900707389607e-01
6.060000000000000497e+00 6.327569322814470265e-01
6.080000000000000071e+00 6.296379130673437352e-01
6.100000000000000533e+00 6.265377016546763711e-01
6.120000000000000107e+00 6.234561793338044833e-01
6.140000000000000568e+00 6.203932167979879786e-01
6.160000000000000142e+00 6.173486972044883725e-01
6.179999999999999716e+00 6.143224926959013343e-01
6.200000000000000178e+00 6.113144882831074156e-01
6.219999999999999751e+00 6.083245575401091676e-01
6.240000000000000213e+00 6.053525873177693084e-01
6.259999999999999787e+00 6.023984526030703446e-01
6.280000000000000249e+00 5.994620420729190879e-01
6.299999999999999822e+00 5.965432321086722167e-01
6.320000000000000284e+00 5.936419131990776643e-01
6.339999999999999858e+00 5.907579631008371690e-01
6.360000000000000320e+00 5.878912741001032227e-01
6.379999999999999893e+00 5.850417253097989212e-01
6.400000000000000355e+00 5.822092107988585674e-01
6.419999999999999929e+00 5.793936110169212172e-01
6.440000000000000391e+00 5.765948218009181447e-01
6.459999999999999964e+00 5.738127249176825373e-01
6.480000000000000426e+00 5.710472179572211315e-01
6.500000000000000000e+00 5.682981839837182303e-01
6.520000000000000462e+00 5.655655223252356034e-01
6.540000000000000036e+00 5.628491173234899669e-01
6.560000000000000497e+00 5.601488700294969814e-01
6.580000000000000071e+00 5.574646660424237288e-01
6.600000000000000533e+00 5.547964081210939868e-01
6.620000000000000107e+00 5.521439831021088818e-01
6.640000000000000568e+00 5.495072954369197848e-01
6.660000000000000142e+00 5.468862331793291620e-01
6.679999999999999716e+00 5.442807024582216879e-01
6.700000000000000178e+00 5.416905925244778208e-01
6.719999999999999751e+00 5.391158111692441190e-01
6.740000000000000213e+00 5.365562488201640612e-01
6.759999999999999787e+00 5.340118149154968741e-01
6.780000000000000249e+00 5.314824010394892939e-01
6.799999999999999822e+00 5.289679182624141829e-01
6.820000000000000284e+00 5.264682593047923520e-01
6.839999999999999858e+00 5.239833368538763247e-01
6.860000000000000320e+00 5.215130447463209862e-01
6.879999999999999893e+00 5.190572972713988209e-01
6.900000000000000355e+00 5.166159893616169008e-01
6.919999999999999929e+00 5.141890368934070032e-01
6.940000000000000391e+00 5.117763358750581082e-01
6.959999999999999964e+00 5.093778037553917670e-01
6.980000000000000426e+00 5.069933375982943469e-01
7.000000000000000000e+00 5.046228564103378833e-01
7.020000000000000462e+00 5.022662582910447648e-01
7.040000000000000036e+00 4.999234637902241207e-01
7.060000000000000497e+00 4.975943720229740741e-01
7.080000000000000071e+00 4.952789050679612948e-01
7.100000000000000533e+00 4.929769630360550936e-01
7.120000000000000107e+00 4.906884695205490643e-01
7.140000000000000568e+00 4.884133256081856778e-01
7.160000000000000142e+00 4.861514563928153732e-01
7.179999999999999716e+00 4.839027639174225404e-01
7.200000000000000178e+00 4.816671747625007050e-01
7.219999999999999751e+00 4.794445919075756013e-01
7.240000000000000213e+00 4.772349434060454421e-01
7.259999999999999787e+00 4.750381331545472929e-01
7.280000000000000249e+00 4.728540906658241227e-01
7.299999999999999822e+00 4.706827207341258146e-01
7.320000000000000284e+00 4.685239543181627386e-01
7.339999999999999858e+00 4.663776970905989527e-01
7.360000000000000320e+00 4.642438814429243332e-01
7.379999999999999893e+00 4.621224139069461945e-01
7.400000000000000355e+00 4.600132282939374262e-01
7.419999999999999929e+00 4.579162319758824373e-01
7.440000000000000391e+00 4.558313601710509144e-01
7.459999999999999964e+00 4.537585210725662010e-01
7.480000000000000426e+00 4.516976512931066834e-01
7.500000000000000000e+00 4.496486598282139480e-01
7.520000000000000462e+00 4.476114846725923191e-01
7.540000000000000036e+00 4.455860356054273108e-01
7.560000000000000497e+00 4.435722519912754791e-01
7.580000000000000071e+00 4.415700443744900450e-01
7.600000000000000533e+00 4.395793534775240818e-01
7.620000000000000107e+00 4.376000905913798311e-01
7.640000000000000568e+00 4.356321977846714932e-01
7.660000000000000142e+00 4.336755870768271293e-01
7.679999999999999716e+00 4.317302018711064449e-01
7.700000000000000178e+00 4.297959548970977095e-01
7.719999999999999751e+00 4.278727908814002889e-01
7.740000000000000213e+00 4.259606232458155173e-01
7.759999999999999787e+00 4.240593980292144405e-01
7.780000000000000249e+00 4.221690293275915384e-01
7.799999999999999822e+00 4.202894644812428249e-01
7.820000000000000284e+00 4.184206182426633003e-01
7.839999999999999858e+00 4.165624392429531087e-01
7.860000000000000320e+00 4.147148428733520298e-01
7.879999999999999893e+00 4.128777790453698748e-01
