# Electrodo circular de radio 6 mm y espesor 710.0 um.
# Volumen de simulacion (convencion z,y,x):
# N: 1024 x 1024 x 1024 | voxelSize:  0.02mm x 0.02mm x 0.02mm | FOV:  20.48mm x 20.48mm x 20.48mm
# 
# z [mm]		 delta[ppm]
0.000000000000000000e+00 2.685081983176278886e+00
2.000000000000000042e-02 2.680652721323528276e+00
4.000000000000000083e-02 2.676095949904269133e+00
5.999999999999999778e-02 2.671412986452005534e+00
8.000000000000000167e-02 2.666605230532348436e+00
1.000000000000000056e-01 2.661674120241694474e+00
1.199999999999999956e-01 2.656621118047440167e+00
1.400000000000000133e-01 2.651447716534615306e+00
1.600000000000000033e-01 2.646155431893141063e+00
1.799999999999999933e-01 2.640745808312267684e+00
2.000000000000000111e-01 2.635220411536794760e+00
2.200000000000000011e-01 2.629580833446902410e+00
2.399999999999999911e-01 2.623828685081860623e+00
2.600000000000000089e-01 2.617965601670553255e+00
2.800000000000000266e-01 2.611993235227633381e+00
2.999999999999999889e-01 2.605913259971499585e+00
3.200000000000000067e-01 2.599727364546243980e+00
3.400000000000000244e-01 2.593437257795611295e+00
3.599999999999999867e-01 2.587044660644330474e+00
3.800000000000000044e-01 2.580551312206580405e+00
4.000000000000000222e-01 2.573958961356788144e+00
4.199999999999999845e-01 2.567269373160492307e+00
4.400000000000000022e-01 2.560484320147695225e+00
4.600000000000000200e-01 2.553605589058445702e+00
4.799999999999999822e-01 2.546634971838656281e+00
5.000000000000000000e-01 2.539574272694696599e+00
5.200000000000000178e-01 2.532425298819639625e+00
5.400000000000000355e-01 2.525189867753014017e+00
5.600000000000000533e-01 2.517869797852578806e+00
5.799999999999999600e-01 2.510466915955579026e+00
5.999999999999999778e-01 2.502983047602426403e+00
6.199999999999999956e-01 2.495420024996622743e+00
6.400000000000000133e-01 2.487779676992692757e+00
6.600000000000000311e-01 2.480063837351591083e+00
6.800000000000000488e-01 2.472274334498710591e+00
7.000000000000000666e-01 2.464413000071866033e+00
7.199999999999999734e-01 2.456481658459965356e+00
7.399999999999999911e-01 2.448482135640223767e+00
7.600000000000000089e-01 2.440416248502979446e+00
7.800000000000000266e-01 2.432285813974785604e+00
8.000000000000000444e-01 2.424092638138719114e+00
8.200000000000000622e-01 2.415838525639506518e+00
8.399999999999999689e-01 2.407525268604575164e+00
8.599999999999999867e-01 2.399154656327234569e+00
8.800000000000000044e-01 2.390728463996886433e+00
9.000000000000000222e-01 2.382248462655759180e+00
9.200000000000000400e-01 2.373716407743348800e+00
9.400000000000000577e-01 2.365134049322064058e+00
9.599999999999999645e-01 2.356503120443504962e+00
9.799999999999999822e-01 2.347825347637888971e+00
1.000000000000000000e+00 2.339102439107084930e+00
1.020000000000000018e+00 2.330336095472439695e+00
1.040000000000000036e+00 2.321527997801591248e+00
1.060000000000000053e+00 2.312679818608932791e+00
1.080000000000000071e+00 2.303793209720939927e+00
1.100000000000000089e+00 2.294869813523246815e+00
1.120000000000000107e+00 2.285911250671045281e+00
1.140000000000000124e+00 2.276919131576386146e+00
1.159999999999999920e+00 2.267895043968261692e+00
1.179999999999999938e+00 2.258840564613511237e+00
1.199999999999999956e+00 2.249757246732788651e+00
1.219999999999999973e+00 2.240646631948099987e+00
1.239999999999999991e+00 2.231510237559210630e+00
1.260000000000000009e+00 2.222349568710671353e+00
1.280000000000000027e+00 2.213166105534560391e+00
1.300000000000000044e+00 2.203961315529558540e+00
1.320000000000000062e+00 2.194736640574555864e+00
1.340000000000000080e+00 2.185493509512156152e+00
1.360000000000000098e+00 2.176233325038869015e+00
1.380000000000000115e+00 2.166957476485178002e+00
1.400000000000000133e+00 2.157667326586876211e+00
1.419999999999999929e+00 2.148364224453684024e+00
1.439999999999999947e+00 2.139049492227339311e+00
1.459999999999999964e+00 2.129724438230567785e+00
1.479999999999999982e+00 2.120390343516529885e+00
1.500000000000000000e+00 2.111048475189829965e+00
1.520000000000000018e+00 2.101700072852913159e+00
1.540000000000000036e+00 2.092346362090586442e+00
1.560000000000000053e+00 2.082988540818122125e+00
1.580000000000000071e+00 2.073627792920722523e+00
1.600000000000000089e+00 2.064265274508922499e+00
1.620000000000000107e+00 2.054902127704288262e+00
1.640000000000000124e+00 2.045539466807023476e+00
1.660000000000000142e+00 2.036178392219122113e+00
1.679999999999999938e+00 2.026819976529851797e+00
1.699999999999999956e+00 2.017465278567522446e+00
1.719999999999999973e+00 2.008115329407909488e+00
1.739999999999999991e+00 1.998771146545720301e+00
1.760000000000000009e+00 1.989433719831790626e+00
1.780000000000000027e+00 1.980104025755247799e+00
1.800000000000000044e+00 1.970783013314778787e+00
1.820000000000000062e+00 1.961471618402499395e+00
1.840000000000000080e+00 1.952170749615257161e+00
1.860000000000000098e+00 1.942881302731154003e+00
1.880000000000000115e+00 1.933604146466412654e+00
1.900000000000000133e+00 1.924340137035505105e+00
1.919999999999999929e+00 1.915090103859716564e+00
1.939999999999999947e+00 1.905854864201819376e+00
1.959999999999999964e+00 1.896635208832103681e+00
1.979999999999999982e+00 1.887431916728498305e+00
2.000000000000000000e+00 1.878245740706438793e+00
2.020000000000000018e+00 1.869077422175356107e+00
2.040000000000000036e+00 1.859927676738388991e+00
2.060000000000000053e+00 1.850797208996180832e+00
2.080000000000000071e+00 1.841686698122974253e+00
2.100000000000000089e+00 1.832596812708669143e+00
2.120000000000000107e+00 1.823528196317578232e+00
2.140000000000000124e+00 1.814481482359682873e+00
2.160000000000000142e+00 1.805457279638819967e+00
2.180000000000000160e+00 1.796456187244109159e+00
2.200000000000000178e+00 1.787478780094090336e+00
2.220000000000000195e+00 1.778525623839307235e+00
2.240000000000000213e+00 1.769597260409386141e+00
2.260000000000000231e+00 1.760694222917784879e+00
2.280000000000000249e+00 1.751817021218549320e+00
2.300000000000000266e+00 1.742966156804288680e+00
2.319999999999999840e+00 1.734142108379791880e+00
2.339999999999999858e+00 1.725345346744280084e+00
2.359999999999999876e+00 1.716576320388875976e+00
2.379999999999999893e+00 1.707835470354220231e+00
2.399999999999999911e+00 1.699123215859166480e+00
2.419999999999999929e+00 1.690439969124891473e+00
2.439999999999999947e+00 1.681786121042001758e+00
2.459999999999999964e+00 1.673162055952279292e+00
2.479999999999999982e+00 1.664568137361771560e+00
2.500000000000000000e+00 1.656004722671339247e+00
2.520000000000000018e+00 1.647472148943113224e+00
2.540000000000000036e+00 1.638970747571062425e+00
2.560000000000000053e+00 1.630500830108541077e+00
2.580000000000000071e+00 1.622062702870087803e+00
2.600000000000000089e+00 1.613656652827642368e+00
2.620000000000000107e+00 1.605282962134844116e+00
2.640000000000000124e+00 1.596941894099785042e+00
2.660000000000000142e+00 1.588633707623085423e+00
2.680000000000000160e+00 1.580358643254926587e+00
2.700000000000000178e+00 1.572116937538205361e+00
2.720000000000000195e+00 1.563908809157854352e+00
2.740000000000000213e+00 1.555734473180407917e+00
2.760000000000000231e+00 1.547594127303494549e+00
2.780000000000000249e+00 1.539487965983169726e+00
2.800000000000000266e+00 1.531416166791701228e+00
2.819999999999999840e+00 1.523378904424051994e+00
2.839999999999999858e+00 1.515376337171965515e+00
2.859999999999999876e+00 1.507408620800994470e+00
2.879999999999999893e+00 1.499475895149124050e+00
2.899999999999999911e+00 1.491578297865757907e+00
2.919999999999999929e+00 1.483715951143016465e+00
2.939999999999999947e+00 1.475888975308089268e+00
2.959999999999999964e+00 1.468097475695538501e+00
2.979999999999999982e+00 1.460341556084497450e+00
3.000000000000000000e+00 1.452621305720170453e+00
3.020000000000000018e+00 1.444936812587353847e+00
3.040000000000000036e+00 1.437288150589537183e+00
3.060000000000000053e+00 1.429675392650220589e+00
3.080000000000000071e+00 1.422098598057931040e+00
3.100000000000000089e+00 1.414557825386829171e+00
3.120000000000000107e+00 1.407053120016095171e+00
3.140000000000000124e+00 1.399584526861355815e+00
3.160000000000000142e+00 1.392152078076800192e+00
3.180000000000000160e+00 1.384755805588944400e+00
3.200000000000000178e+00 1.377395728989996293e+00
3.220000000000000195e+00 1.370071867865521931e+00
3.240000000000000213e+00 1.362784229887440635e+00
3.260000000000000231e+00 1.355532822927149716e+00
3.280000000000000249e+00 1.348317643356734319e+00
3.300000000000000266e+00 1.341138687939100516e+00
3.320000000000000284e+00 1.333995942345844954e+00
3.339999999999999858e+00 1.326889392815975732e+00
3.359999999999999876e+00 1.319819014899036747e+00
3.379999999999999893e+00 1.312784784874001298e+00
3.399999999999999911e+00 1.305786668726138133e+00
3.419999999999999929e+00 1.298824633317659405e+00
3.439999999999999947e+00 1.291898635606933077e+00
3.459999999999999964e+00 1.285008633562533475e+00
3.479999999999999982e+00 1.278154575633266621e+00
3.500000000000000000e+00 1.271336411397223864e+00
3.520000000000000018e+00 1.264554081291276111e+00
3.540000000000000036e+00 1.257807526986761681e+00
3.560000000000000053e+00 1.251096681386940190e+00
3.580000000000000071e+00 1.244421478720923790e+00
3.600000000000000089e+00 1.237781844817763988e+00
3.620000000000000107e+00 1.231177706910274061e+00
3.640000000000000124e+00 1.224608984194225370e+00
3.660000000000000142e+00 1.218075597333721394e+00
3.680000000000000160e+00 1.211577459314158833e+00
3.700000000000000178e+00 1.205114484640783745e+00
3.720000000000000195e+00 1.198686580493945497e+00
3.740000000000000213e+00 1.192293655612498782e+00
3.760000000000000231e+00 1.185935611759965980e+00
3.780000000000000249e+00 1.179612352284476584e+00
3.800000000000000266e+00 1.173323773904332956e+00
3.820000000000000284e+00 1.167069774936148940e+00
3.839999999999999858e+00 1.160850247408480307e+00
3.859999999999999876e+00 1.154665084949822340e+00
3.879999999999999893e+00 1.148514175238797508e+00
3.899999999999999911e+00 1.142397407543701338e+00
3.919999999999999929e+00 1.136314665517875966e+00
3.939999999999999947e+00 1.130265834382491397e+00
3.959999999999999964e+00 1.124250794075587923e+00
3.979999999999999982e+00 1.118269426069780748e+00
4.000000000000000000e+00 1.112321606883605041e+00
4.020000000000000462e+00 1.106407214525819471e+00
4.040000000000000036e+00 1.100526122377523786e+00
4.060000000000000497e+00 1.094678205254790981e+00
4.080000000000000071e+00 1.088863333670135214e+00
4.099999999999999645e+00 1.083081379505186570e+00
4.120000000000000107e+00 1.077332210659965428e+00
4.139999999999999680e+00 1.071615696327294920e+00
4.160000000000000142e+00 1.065931702038500184e+00
4.179999999999999716e+00 1.060280094531254047e+00
4.200000000000000178e+00 1.054660737200132425e+00
4.219999999999999751e+00 1.049073494549622065e+00
4.240000000000000213e+00 1.043518228058118558e+00
4.259999999999999787e+00 1.037994800207791668e+00
4.280000000000000249e+00 1.032503070770447451e+00
4.299999999999999822e+00 1.027042900405998438e+00
4.320000000000000284e+00 1.021614147378747450e+00
4.339999999999999858e+00 1.016216670716146186e+00
4.360000000000000320e+00 1.010850327363967072e+00
4.379999999999999893e+00 1.005514974897048441e+00
4.400000000000000355e+00 1.000210469121886936e+00
4.419999999999999929e+00 9.949366663311201009e-01
4.440000000000000391e+00 9.896934213619179577e-01
4.459999999999999964e+00 9.844805893859388535e-01
4.480000000000000426e+00 9.792980244320830252e-01
4.500000000000000000e+00 9.741455807035790393e-01
4.520000000000000462e+00 9.690231115735338241e-01
4.540000000000000036e+00 9.639304704208957464e-01
4.560000000000000497e+00 9.588675101072888785e-01
4.580000000000000071e+00 9.538340833235606775e-01
4.600000000000000533e+00 9.488300425563265250e-01
4.620000000000000107e+00 9.438552399367968748e-01
4.639999999999999680e+00 9.389095277055621303e-01
4.660000000000000142e+00 9.339927575553993444e-01
4.679999999999999716e+00 9.291047816026895001e-01
4.700000000000000178e+00 9.242454512159078428e-01
4.719999999999999751e+00 9.194146185022098461e-01
4.740000000000000213e+00 9.146121346132668473e-01
4.759999999999999787e+00 9.098378517554409628e-01
4.780000000000000249e+00 9.050916209646524546e-01
4.799999999999999822e+00 9.003732946486673328e-01
4.820000000000000284e+00 8.956827238226648946e-01
4.839999999999999858e+00 8.910197611920483984e-01
4.860000000000000320e+00 8.863842578403919870e-01
4.879999999999999893e+00 8.817760668612889541e-01
4.900000000000000355e+00 8.771950394903390569e-01
4.919999999999999929e+00 8.726410292944688507e-01
4.940000000000000391e+00 8.681138877395869757e-01
4.959999999999999964e+00 8.636134689459257219e-01
4.980000000000000426e+00 8.591396246829985373e-01
5.000000000000000000e+00 8.546922096993978535e-01
5.020000000000000462e+00 8.502710761366765180e-01
5.040000000000000036e+00 8.458760794421631424e-01
5.060000000000000497e+00 8.415070721933600728e-01
5.080000000000000071e+00 8.371639106022418231e-01
5.100000000000000533e+00 8.328464477417663048e-01
5.120000000000000107e+00 8.285545406502288213e-01
5.139999999999999680e+00 8.242880429514465312e-01
5.160000000000000142e+00 8.200468125676744213e-01
5.179999999999999716e+00 8.158307037250062121e-01
5.200000000000000178e+00 8.116395752834588695e-01
5.219999999999999751e+00 8.074732821191216159e-01
5.240000000000000213e+00 8.033316840799337166e-01
5.259999999999999787e+00 7.992146367360800641e-01
5.280000000000000249e+00 7.951220009701147617e-01
5.299999999999999822e+00 7.910536330870975297e-01
5.320000000000000284e+00 7.870093950476014788e-01
5.339999999999999858e+00 7.829891439290667110e-01
5.360000000000000320e+00 7.789927428103806673e-01
5.379999999999999893e+00 7.750200495758609032e-01
5.400000000000000355e+00 7.710709284600381075e-01
5.419999999999999929e+00 7.671452381856667113e-01
5.440000000000000391e+00 7.632428441774427030e-01
5.459999999999999964e+00 7.593636060254207454e-01
5.480000000000000426e+00 7.555073903763193099e-01
5.500000000000000000e+00 7.516740577137016599e-01
5.520000000000000462e+00 7.478634759356516115e-01
5.540000000000000036e+00 7.440755064430177868e-01
5.560000000000000497e+00 7.403100184122074490e-01
5.580000000000000071e+00 7.365668741827557930e-01
5.600000000000000533e+00 7.328459442340752306e-01
5.620000000000000107e+00 7.291470918636213661e-01
5.639999999999999680e+00 7.254701888763678275e-01
5.660000000000000142e+00 7.218150995447685236e-01
5.679999999999999716e+00 7.181816970198959815e-01
5.700000000000000178e+00 7.145698465643374186e-01
5.719999999999999751e+00 7.109794226938810358e-01
5.740000000000000213e+00 7.074102916744763325e-01
5.759999999999999787e+00 7.038623294034377365e-01
5.780000000000000249e+00 7.003354031615532937e-01
5.799999999999999822e+00 6.968293902427756814e-01
5.820000000000000284e+00 6.933441589525001225e-01
5.839999999999999858e+00 6.898795879948120824e-01
5.860000000000000320e+00 6.864355467079248374e-01
5.879999999999999893e+00 6.830119152180402775e-01
5.900000000000000355e+00 6.796085639028700554e-01
5.919999999999999929e+00 6.762253743212771617e-01
5.940000000000000391e+00 6.728622178957713862e-01
5.959999999999999964e+00 6.695189776270842330e-01
5.980000000000000426e+00 6.661955259864468237e-01
6.000000000000000000e+00 6.628917474243892771e-01
6.020000000000000462e+00 6.596075154635729909e-01
6.040000000000000036e+00 6.563427160110600900e-01
6.060000000000000497e+00 6.530972236424280597e-01
6.080000000000000071e+00 6.498709257268903139e-01
6.100000000000000533e+00 6.466636978933251179e-01
6.120000000000000107e+00 6.434754289776674074e-01
6.140000000000000568e+00 6.403059956614127746e-01
6.160000000000000142e+00 6.371552882507778293e-01
6.179999999999999716e+00 6.340231844782316939e-01
6.200000000000000178e+00 6.309095761229235322e-01
6.219999999999999751e+00 6.278143419656719848e-01
6.240000000000000213e+00 6.247373752603330166e-01
6.259999999999999787e+00 6.216785558326289873e-01
6.280000000000000249e+00 6.186377784120832279e-01
6.299999999999999822e+00 6.156149238649970545e-01
6.320000000000000284e+00 6.126098883967620035e-01
6.339999999999999858e+00 6.096225539092138268e-01
6.360000000000000320e+00 6.066528180830975669e-01
6.379999999999999893e+00 6.037005638499689519e-01
6.400000000000000355e+00 6.007656903647563551e-01
6.419999999999999929e+00 5.978480815822713179e-01
6.440000000000000391e+00 5.949476381298387517e-01
6.459999999999999964e+00 5.920642449783968253e-01
6.480000000000000426e+00 5.891978042252979941e-01
6.500000000000000000e+00 5.863482018499183157e-01
6.520000000000000462e+00 5.835153414167402186e-01
6.540000000000000036e+00 5.806991099052866145e-01
6.560000000000000497e+00 5.778994123437762864e-01
6.580000000000000071e+00 5.751161367031110139e-01
6.600000000000000533e+00 5.723491894714002326e-01
6.620000000000000107e+00 5.695984596016231416e-01
6.640000000000000568e+00 5.668638550375068030e-01
6.660000000000000142e+00 5.641452657044015995e-01
6.679999999999999716e+00 5.614426009969840647e-01
6.700000000000000178e+00 5.587557518028000159e-01
6.719999999999999751e+00 5.560846289624613581e-01
6.740000000000000213e+00 5.534291243151798767e-01
6.759999999999999787e+00 5.507891501421527947e-01
6.780000000000000249e+00 5.481645992233243891e-01
6.799999999999999822e+00 5.455553852748299404e-01
6.820000000000000284e+00 5.429614020061086510e-01
6.839999999999999858e+00 5.403825645623145935e-01
6.860000000000000320e+00 5.378187675707926108e-01
6.879999999999999893e+00 5.352699275995460582e-01
6.900000000000000355e+00 5.327359401819826701e-01
6.919999999999999929e+00 5.302167233025684157e-01
6.940000000000000391e+00 5.277121733886215305e-01
6.959999999999999964e+00 5.252222098344691004e-01
6.980000000000000426e+00 5.227467299489840791e-01
7.000000000000000000e+00 5.202856545295894142e-01
7.020000000000000462e+00 5.178388817540757749e-01
7.040000000000000036e+00 5.154063338160356222e-01
7.060000000000000497e+00 5.129879097493753592e-01
7.080000000000000071e+00 5.105835331367859498e-01
7.100000000000000533e+00 5.081931038552554014e-01
7.120000000000000107e+00 5.058165468693862632e-01
7.140000000000000568e+00 5.034537628860735747e-01
7.160000000000000142e+00 5.011046782445442993e-01
7.179999999999999716e+00 4.987691944682204337e-01
7.200000000000000178e+00 4.964472392635746467e-01
7.219999999999999751e+00 4.941387149570792836e-01
7.240000000000000213e+00 4.918435506150035663e-01
7.259999999999999787e+00 4.895616493532097269e-01
7.280000000000000249e+00 4.872929415902614858e-01
7.299999999999999822e+00 4.850373312176698981e-01
7.320000000000000284e+00 4.827947499987469970e-01
7.339999999999999858e+00 4.805651025867711534e-01
7.360000000000000320e+00 4.783483220822256077e-01
7.379999999999999893e+00 4.761443138862109792e-01
7.400000000000000355e+00 4.739530124287876234e-01
7.419999999999999929e+00 4.717743238448048881e-01
7.440000000000000391e+00 4.696081838863097047e-01
7.459999999999999964e+00 4.674544994077874382e-01
7.480000000000000426e+00 4.653132074756811676e-01
7.500000000000000000e+00 4.631842156498932050e-01
7.520000000000000462e+00 4.610674623036877806e-01
7.540000000000000036e+00 4.589628556881575894e-01
7.560000000000000497e+00 4.568703354758403834e-01
7.580000000000000071e+00 4.547898105946772129e-01
7.600000000000000533e+00 4.527212220089689709e-01
7.620000000000000107e+00 4.506644793091874601e-01
7.640000000000000568e+00 4.486195247439350720e-01
7.660000000000000142e+00 4.465862685517866804e-01
7.679999999999999716e+00 4.445646542582387672e-01
7.700000000000000178e+00 4.425545927355798437e-01
7.719999999999999751e+00 4.405560287788420348e-01
7.740000000000000213e+00 4.385688738795592290e-01
7.759999999999999787e+00 4.365930740950261235e-01
7.780000000000000249e+00 4.346285415215774828e-01
7.799999999999999822e+00 4.326752234715650625e-01
7.820000000000000284e+00 4.307330326316204383e-01
7.839999999999999858e+00 4.288019175620302881e-01
7.860000000000000320e+00 4.268817915252632877e-01
7.879999999999999893e+00 4.249726043225069971e-01
