# Electrodo circular de radio 6 mm y espesor 710.0 um.
# Volumen de simulacion (convencion z,y,x):
# N: 1024 x 1024 x 1024 | voxelSize:  0.02mm x 0.02mm x 0.02mm | FOV:  20.48mm x 20.48mm x 20.48mm
# 
# z [mm]		 delta[ppm]
0.000000000000000000e+00 2.588228755310339135e+00
2.000000000000000042e-02 2.584509393293236812e+00
4.000000000000000083e-02 2.580680811974018773e+00
5.999999999999999778e-02 2.576744047101515722e+00
8.000000000000000167e-02 2.572700106272389764e+00
1.000000000000000056e-01 2.568550014194499909e+00
1.199999999999999956e-01 2.564294818212910609e+00
1.400000000000000133e-01 2.559935589153698565e+00
1.600000000000000033e-01 2.555473416373525097e+00
1.799999999999999933e-01 2.550909412049385150e+00
2.000000000000000111e-01 2.546244704945265891e+00
2.200000000000000011e-01 2.541480445427671153e+00
2.399999999999999911e-01 2.536617798989965422e+00
2.600000000000000089e-01 2.531657951483085256e+00
2.800000000000000266e-01 2.526602102414076789e+00
2.999999999999999889e-01 2.521451470398011541e+00
3.200000000000000067e-01 2.516207286211531891e+00
3.400000000000000244e-01 2.510870798473673116e+00
3.599999999999999867e-01 2.505443266467876295e+00
3.800000000000000044e-01 2.499925966058263782e+00
4.000000000000000222e-01 2.494320182263583874e+00
4.199999999999999845e-01 2.488627215413805605e+00
4.400000000000000022e-01 2.482848373492840377e+00
4.600000000000000200e-01 2.476984978536561410e+00
4.799999999999999822e-01 2.471038358735102580e+00
5.000000000000000000e-01 2.465009855074043355e+00
5.200000000000000178e-01 2.458900813211517544e+00
5.400000000000000355e-01 2.452712590361830980e+00
5.600000000000000533e-01 2.446446546942779854e+00
5.799999999999999600e-01 2.440104053701718900e+00
5.999999999999999778e-01 2.433686483146351609e+00
6.199999999999999956e-01 2.427195216911617326e+00
6.400000000000000133e-01 2.420631636972217837e+00
6.600000000000000311e-01 2.413997133249169647e+00
6.800000000000000488e-01 2.407293094615793105e+00
7.000000000000000666e-01 2.400520916741593069e+00
7.199999999999999734e-01 2.393681992891846910e+00
7.399999999999999911e-01 2.386777722006801383e+00
7.600000000000000089e-01 2.379809499305328035e+00
7.800000000000000266e-01 2.372778724596533273e+00
8.000000000000000444e-01 2.365686792688868501e+00
8.200000000000000622e-01 2.358535101931390709e+00
8.399999999999999689e-01 2.351325044437869050e+00
8.599999999999999867e-01 2.344058014854213390e+00
8.800000000000000044e-01 2.336735400399857721e+00
9.000000000000000222e-01 2.329358589857912776e+00
9.200000000000000400e-01 2.321928963442621008e+00
9.400000000000000577e-01 2.314447902008261782e+00
9.599999999999999645e-01 2.306916776745514763e+00
9.799999999999999822e-01 2.299336958605093351e+00
1.000000000000000000e+00 2.291709807831263657e+00
1.020000000000000018e+00 2.284036683595657813e+00
1.040000000000000036e+00 2.276318933371263675e+00
1.060000000000000053e+00 2.268557902771868751e+00
1.080000000000000071e+00 2.260754924774243779e+00
1.100000000000000089e+00 2.252911329758209291e+00
1.120000000000000107e+00 2.245028434580687904e+00
1.140000000000000124e+00 2.237107552811294031e+00
1.159999999999999920e+00 2.229149983665631662e+00
1.179999999999999938e+00 2.221157022430941375e+00
1.199999999999999956e+00 2.213129949262569784e+00
1.219999999999999973e+00 2.205070039794129855e+00
1.239999999999999991e+00 2.196978553804205259e+00
1.260000000000000009e+00 2.188856746005147791e+00
1.280000000000000027e+00 2.180705854584169323e+00
1.300000000000000044e+00 2.172527112164787333e+00
1.320000000000000062e+00 2.164321734229163408e+00
1.340000000000000080e+00 2.156090930245930792e+00
1.360000000000000098e+00 2.147835891978125744e+00
1.380000000000000115e+00 2.139557804771026195e+00
1.400000000000000133e+00 2.131257835752371932e+00
1.419999999999999929e+00 2.122937145273597004e+00
1.439999999999999947e+00 2.114596875006868881e+00
1.459999999999999964e+00 2.106238159533003973e+00
1.479999999999999982e+00 2.097862114341911166e+00
1.500000000000000000e+00 2.089469847560267102e+00
1.520000000000000018e+00 2.081062447860072329e+00
1.540000000000000036e+00 2.072640996319061735e+00
1.560000000000000053e+00 2.064206554243900982e+00
1.580000000000000071e+00 2.055760175156148062e+00
1.600000000000000089e+00 2.047302892534960339e+00
1.620000000000000107e+00 2.038835731921334382e+00
1.640000000000000124e+00 2.030359698586822415e+00
1.660000000000000142e+00 2.021875789748623919e+00
1.679999999999999938e+00 2.013384982169371451e+00
1.699999999999999956e+00 2.004888244475569348e+00
1.719999999999999973e+00 1.996386524694967024e+00
1.739999999999999991e+00 1.987880762670715562e+00
1.760000000000000009e+00 1.979371877541571179e+00
1.780000000000000027e+00 1.970860780244071631e+00
1.800000000000000044e+00 1.962348360942127945e+00
1.820000000000000062e+00 1.953835501609428427e+00
1.840000000000000080e+00 1.945323063413850084e+00
1.860000000000000098e+00 1.936811899372232304e+00
1.880000000000000115e+00 1.928302841696226899e+00
1.900000000000000133e+00 1.919796714511520008e+00
1.919999999999999929e+00 1.911294321170722288e+00
1.939999999999999947e+00 1.902796457029067412e+00
1.959999999999999964e+00 1.894303896731058590e+00
1.979999999999999982e+00 1.885817407034576121e+00
2.000000000000000000e+00 1.877337734077094478e+00
2.020000000000000018e+00 1.868865616240128036e+00
2.040000000000000036e+00 1.860401771401817284e+00
2.060000000000000053e+00 1.851946909833573240e+00
2.080000000000000071e+00 1.843501721445024000e+00
2.100000000000000089e+00 1.835066888704701471e+00
2.120000000000000107e+00 1.826643073884277602e+00
2.140000000000000124e+00 1.818230931995069577e+00
2.160000000000000142e+00 1.809831098037749442e+00
2.180000000000000160e+00 1.801444199946446334e+00
2.200000000000000178e+00 1.793070845850974315e+00
2.220000000000000195e+00 1.784711637020253372e+00
2.240000000000000213e+00 1.776367155143440790e+00
2.260000000000000231e+00 1.768037975264397543e+00
2.280000000000000249e+00 1.759724653088865054e+00
2.300000000000000266e+00 1.751427737901681381e+00
2.319999999999999840e+00 1.743147759906572336e+00
2.339999999999999858e+00 1.734885243117786136e+00
2.359999999999999876e+00 1.726640692739797256e+00
2.379999999999999893e+00 1.718414608025021773e+00
2.399999999999999911e+00 1.710207469700156357e+00
2.419999999999999929e+00 1.702019752781647632e+00
2.439999999999999947e+00 1.693851914056073715e+00
2.459999999999999964e+00 1.685704404845006055e+00
2.479999999999999982e+00 1.677577658546341111e+00
2.500000000000000000e+00 1.669472103340189584e+00
2.520000000000000018e+00 1.661388149798694203e+00
2.540000000000000036e+00 1.653326203524585036e+00
2.560000000000000053e+00 1.645286652836531527e+00
2.580000000000000071e+00 1.637269881331992361e+00
2.600000000000000089e+00 1.629276255655755401e+00
2.620000000000000107e+00 1.621306137978708373e+00
2.640000000000000124e+00 1.613359873856772930e+00
2.660000000000000142e+00 1.605437804617217079e+00
2.680000000000000160e+00 1.597540255315744950e+00
2.700000000000000178e+00 1.589667547021972771e+00
2.720000000000000195e+00 1.581819984882016028e+00
2.740000000000000213e+00 1.573997870294747248e+00
2.760000000000000231e+00 1.566201489087753140e+00
2.780000000000000249e+00 1.558431123575991561e+00
2.800000000000000266e+00 1.550687040858585997e+00
2.819999999999999840e+00 1.542969504751511511e+00
2.839999999999999858e+00 1.535278764213173774e+00
2.859999999999999876e+00 1.527615065142757356e+00
2.879999999999999893e+00 1.519978638942177440e+00
2.899999999999999911e+00 1.512369714171700963e+00
2.919999999999999929e+00 1.504788505256347886e+00
2.939999999999999947e+00 1.497235223990377007e+00
2.959999999999999964e+00 1.489710068395835973e+00
2.979999999999999982e+00 1.482213234067567109e+00
3.000000000000000000e+00 1.474744903192011236e+00
3.020000000000000018e+00 1.467305255724361768e+00
3.040000000000000036e+00 1.459894458575420106e+00
3.060000000000000053e+00 1.452512676612524034e+00
3.080000000000000071e+00 1.445160062022664560e+00
3.100000000000000089e+00 1.437836765128803318e+00
3.120000000000000107e+00 1.430542923937138333e+00
3.140000000000000124e+00 1.423278674760450002e+00
3.160000000000000142e+00 1.416044141957775615e+00
3.180000000000000160e+00 1.408839448356409951e+00
3.200000000000000178e+00 1.401664705191950855e+00
3.220000000000000195e+00 1.394520022320608899e+00
3.240000000000000213e+00 1.387405498367917378e+00
3.260000000000000231e+00 1.380321230722986403e+00
3.280000000000000249e+00 1.373267305903934643e+00
3.300000000000000266e+00 1.366243809325709879e+00
3.320000000000000284e+00 1.359250815890605146e+00
3.339999999999999858e+00 1.352288399521285323e+00
3.359999999999999876e+00 1.345356623984491184e+00
3.379999999999999893e+00 1.338455552180899844e+00
3.399999999999999911e+00 1.331585237210443529e+00
3.419999999999999929e+00 1.324745731410625460e+00
3.439999999999999947e+00 1.317937077671588408e+00
3.459999999999999964e+00 1.311159318214577763e+00
3.479999999999999982e+00 1.304412486165169360e+00
3.500000000000000000e+00 1.297696614063500453e+00
3.520000000000000018e+00 1.291011725703891777e+00
3.540000000000000036e+00 1.284357844368490875e+00
3.560000000000000053e+00 1.277734984941738094e+00
3.580000000000000071e+00 1.271143161859046522e+00
3.600000000000000089e+00 1.264582381504397501e+00
3.620000000000000107e+00 1.258052649865692318e+00
3.640000000000000124e+00 1.251553965223938025e+00
3.660000000000000142e+00 1.245086325506939984e+00
3.680000000000000160e+00 1.238649721278362703e+00
3.700000000000000178e+00 1.232244142781374174e+00
3.720000000000000195e+00 1.225869573236124221e+00
3.740000000000000213e+00 1.219525995564980869e+00
3.760000000000000231e+00 1.213213386006717798e+00
3.780000000000000249e+00 1.206931720514996531e+00
3.800000000000000266e+00 1.200680968697795503e+00
3.820000000000000284e+00 1.194461099880761656e+00
3.839999999999999858e+00 1.188272077380242875e+00
3.859999999999999876e+00 1.182113864223132804e+00
3.879999999999999893e+00 1.175986417762051151e+00
3.899999999999999911e+00 1.169889695043314859e+00
3.919999999999999929e+00 1.163823647772638470e+00
3.939999999999999947e+00 1.157788227322859020e+00
3.959999999999999964e+00 1.151783380058718054e+00
3.979999999999999982e+00 1.145809051975958281e+00
4.000000000000000000e+00 1.139865184393597630e+00
4.020000000000000462e+00 1.133951718216000604e+00
4.040000000000000036e+00 1.128068590001213511e+00
4.060000000000000497e+00 1.122215735837649664e+00
4.080000000000000071e+00 1.116393087796885508e+00
4.099999999999999645e+00 1.110600577416582579e+00
4.120000000000000107e+00 1.104838132546312801e+00
4.139999999999999680e+00 1.099105680428321241e+00
4.160000000000000142e+00 1.093403144944847583e+00
4.179999999999999716e+00 1.087730449288309975e+00
4.200000000000000178e+00 1.082087513618703811e+00
4.219999999999999751e+00 1.076474257314824046e+00
4.240000000000000213e+00 1.070890597050200510e+00
4.259999999999999787e+00 1.065336448616934328e+00
4.280000000000000249e+00 1.059811725428762674e+00
4.299999999999999822e+00 1.054316339909120215e+00
4.320000000000000284e+00 1.048850202429802092e+00
4.339999999999999858e+00 1.043413222254799821e+00
4.360000000000000320e+00 1.038005306923217574e+00
4.379999999999999893e+00 1.032626362740433734e+00
4.400000000000000355e+00 1.027276294613742369e+00
4.419999999999999929e+00 1.021955006082438278e+00
4.440000000000000391e+00 1.016662399614779666e+00
4.459999999999999964e+00 1.011398376168559654e+00
4.480000000000000426e+00 1.006162835957932433e+00
4.500000000000000000e+00 1.000955677535956712e+00
4.520000000000000462e+00 9.957767990399505331e-01
4.540000000000000036e+00 9.906260967875777368e-01
4.560000000000000497e+00 9.855034670092188698e-01
4.580000000000000071e+00 9.804088039491151152e-01
4.600000000000000533e+00 9.753420020934447932e-01
4.620000000000000107e+00 9.703029537680258887e-01
4.639999999999999680e+00 9.652915518706470799e-01
4.660000000000000142e+00 9.603076869568286655e-01
4.679999999999999716e+00 9.553512504850847353e-01
4.700000000000000178e+00 9.504221313822223127e-01
4.719999999999999751e+00 9.455202198101346767e-01
4.740000000000000213e+00 9.406454032020773459e-01
4.759999999999999787e+00 9.357975705597100236e-01
4.780000000000000249e+00 9.309766079518078108e-01
4.799999999999999822e+00 9.261824033501550035e-01
4.820000000000000284e+00 9.214148415821240556e-01
4.839999999999999858e+00 9.166738097141505781e-01
4.860000000000000320e+00 9.119591914496122387e-01
4.879999999999999893e+00 9.072708730685096201e-01
4.900000000000000355e+00 9.026087372620408278e-01
4.919999999999999929e+00 8.979726696372725137e-01
4.940000000000000391e+00 8.933625519797759873e-01
4.959999999999999964e+00 8.887782693319598026e-01
4.980000000000000426e+00 8.842197026751302813e-01
5.000000000000000000e+00 8.796867365902875102e-01
5.020000000000000462e+00 8.751792513509496496e-01
5.040000000000000036e+00 8.706971311751224851e-01
5.060000000000000497e+00 8.662402557201946962e-01
5.080000000000000071e+00 8.618085089349278860e-01
5.100000000000000533e+00 8.574017699477184395e-01
5.120000000000000107e+00 8.530199225273625840e-01
5.139999999999999680e+00 8.486628453559316165e-01
5.160000000000000142e+00 8.443304221072196469e-01
5.179999999999999716e+00 8.400225310954687608e-01
5.200000000000000178e+00 8.357390559802948538e-01
5.219999999999999751e+00 8.314798747824708736e-01
5.240000000000000213e+00 8.272448712242835844e-01
5.259999999999999787e+00 8.230339231035382896e-01
5.280000000000000249e+00 8.188469142782089927e-01
5.299999999999999822e+00 8.146837223898298896e-01
5.320000000000000284e+00 8.105442315014120824e-01
5.339999999999999858e+00 8.064283191613492718e-01
5.360000000000000320e+00 8.023358697035293252e-01
5.379999999999999893e+00 7.982667606428074381e-01
5.400000000000000355e+00 7.942208766463995095e-01
5.419999999999999929e+00 7.901980952519631618e-01
5.440000000000000391e+00 7.861983015192539614e-01
5.459999999999999964e+00 7.822213730618245986e-01
5.480000000000000426e+00 7.782671953880705429e-01
5.500000000000000000e+00 7.743356462375268201e-01
5.520000000000000462e+00 7.704266116203574155e-01
5.540000000000000036e+00 7.665399694491644711e-01
5.560000000000000497e+00 7.626756062861582697e-01
5.580000000000000071e+00 7.588334002613491558e-01
5.600000000000000533e+00 7.550132385365204701e-01
5.620000000000000107e+00 7.512149995006797143e-01
5.639999999999999680e+00 7.474385709601079064e-01
5.660000000000000142e+00 7.436838316018634654e-01
5.679999999999999716e+00 7.399506699191454873e-01
5.700000000000000178e+00 7.362389649335817632e-01
5.719999999999999751e+00 7.325486058653082333e-01
5.740000000000000213e+00 7.288794721047472391e-01
5.759999999999999787e+00 7.252314536366955000e-01
5.780000000000000249e+00 7.216044302522505172e-01
5.799999999999999822e+00 7.179982927364055856e-01
5.820000000000000284e+00 7.144129213107218712e-01
5.839999999999999858e+00 7.108482075938243883e-01
5.860000000000000320e+00 7.073040322653719736e-01
5.879999999999999893e+00 7.037802878090613223e-01
5.900000000000000355e+00 7.002768553883722547e-01
5.919999999999999929e+00 6.967936283815914233e-01
5.940000000000000391e+00 6.933304884597752960e-01
5.959999999999999964e+00 6.898873299235016576e-01
5.980000000000000426e+00 6.864640349734070224e-01
6.000000000000000000e+00 6.830604988583113268e-01
6.020000000000000462e+00 6.796766043286415204e-01
6.040000000000000036e+00 6.763122476057429333e-01
6.060000000000000497e+00 6.729673120084525006e-01
6.080000000000000071e+00 6.696416947533472275e-01
6.100000000000000533e+00 6.663352797446262521e-01
6.120000000000000107e+00 6.630479652152923009e-01
6.140000000000000568e+00 6.597796356704364040e-01
6.160000000000000142e+00 6.565301903792224447e-01
6.179999999999999716e+00 6.532995144616438044e-01
6.200000000000000178e+00 6.500875082414042661e-01
6.219999999999999751e+00 6.468940574660902998e-01
6.240000000000000213e+00 6.437190635310083842e-01
6.259999999999999787e+00 6.405624128226652392e-01
6.280000000000000249e+00 6.374240078237856100e-01
6.299999999999999822e+00 6.343037355699182589e-01
6.320000000000000284e+00 6.312014996458383820e-01
6.339999999999999858e+00 6.281171877450115737e-01
6.360000000000000320e+00 6.250507045677620166e-01
6.379999999999999893e+00 6.220019384732670131e-01
6.400000000000000355e+00 6.189707952898341192e-01
6.419999999999999929e+00 6.159571640489844846e-01
6.440000000000000391e+00 6.129609517184252399e-01
6.459999999999999964e+00 6.099820480076968421e-01
6.480000000000000426e+00 6.070203610343468670e-01
6.500000000000000000e+00 6.040757811905516084e-01
6.520000000000000462e+00 6.011482177532277982e-01
6.540000000000000036e+00 5.982375618009282414e-01
6.560000000000000497e+00 5.953437237785919045e-01
6.580000000000000071e+00 5.924665954539326540e-01
6.600000000000000533e+00 5.896060884477447583e-01
6.620000000000000107e+00 5.867620952188937755e-01
6.640000000000000568e+00 5.839345285710763056e-01
6.660000000000000142e+00 5.811232816554312564e-01
6.679999999999999716e+00 5.783282684648581862e-01
6.700000000000000178e+00 5.755493828431809122e-01
6.719999999999999751e+00 5.727865399781112421e-01
6.740000000000000213e+00 5.700396344057684361e-01
6.759999999999999787e+00 5.673085825136153781e-01
6.780000000000000249e+00 5.645932795290508066e-01
6.799999999999999822e+00 5.618936430436023421e-01
6.820000000000000284e+00 5.592095689741951592e-01
6.839999999999999858e+00 5.565409761201455252e-01
6.860000000000000320e+00 5.538877610855947875e-01
6.879999999999999893e+00 5.512498438808104417e-01
6.900000000000000355e+00 5.486271217941701694e-01
6.919999999999999929e+00 5.460195160495333599e-01
6.940000000000000391e+00 5.434269246160373656e-01
6.959999999999999964e+00 5.408492699332680953e-01
6.980000000000000426e+00 5.382864506470376176e-01
7.000000000000000000e+00 5.357383904143381281e-01
7.020000000000000462e+00 5.332049885531245925e-01
7.040000000000000036e+00 5.306861699390370557e-01
7.060000000000000497e+00 5.281818345570831186e-01
7.080000000000000071e+00 5.256919085023765703e-01
7.100000000000000533e+00 5.232162924215063571e-01
7.120000000000000107e+00 5.207549136295031023e-01
7.140000000000000568e+00 5.183076734285477771e-01
7.160000000000000142e+00 5.158745003536763241e-01
7.179999999999999716e+00 5.134552963563339123e-01
7.200000000000000178e+00 5.110499911913044535e-01
7.219999999999999751e+00 5.086584874525110767e-01
7.240000000000000213e+00 5.062807161139186718e-01
7.259999999999999787e+00 5.039165804048363340e-01
7.280000000000000249e+00 5.015660125175519513e-01
7.299999999999999822e+00 4.992289163092413773e-01
7.320000000000000284e+00 4.969052251893859573e-01
7.339999999999999858e+00 4.945948436352616828e-01
7.360000000000000320e+00 4.922977062721595187e-01
7.379999999999999893e+00 4.900137181892916804e-01
7.400000000000000355e+00 4.877428152261396033e-01
7.419999999999999929e+00 4.854849030754703199e-01
7.440000000000000391e+00 4.832399187891324166e-01
7.459999999999999964e+00 4.810077686546986864e-01
7.480000000000000426e+00 4.787883909343590982e-01
7.500000000000000000e+00 4.765816925015641248e-01
7.520000000000000462e+00 4.743876128266351078e-01
7.540000000000000036e+00 4.722060593596510980e-01
7.560000000000000497e+00 4.700369727766906536e-01
7.580000000000000071e+00 4.678802610950357210e-01
7.600000000000000533e+00 4.657358661939993705e-01
7.620000000000000107e+00 4.636036966483605415e-01
7.640000000000000568e+00 4.614836955380133832e-01
7.660000000000000142e+00 4.593757719853717725e-01
7.679999999999999716e+00 4.572798702681346583e-01
7.700000000000000178e+00 4.551959000462328375e-01
7.719999999999999751e+00 4.531238067922754298e-01
7.740000000000000213e+00 4.510635006934789470e-01
7.759999999999999787e+00 4.490149284143860053e-01
7.780000000000000249e+00 4.469780006590072241e-01
7.799999999999999822e+00 4.449526652807522242e-01
7.820000000000000284e+00 4.429388334898530788e-01
7.839999999999999858e+00 4.409364543254474800e-01
7.860000000000000320e+00 4.389454394931833203e-01
7.879999999999999893e+00 4.369657392147262009e-01
