# Electrodo circular de radio 6 mm y espesor 710.0 um.
# Volumen de simulacion (convencion z,y,x):
# N: 1024 x 1024 x 1024 | voxelSize:  0.02mm x 0.02mm x 0.02mm | FOV:  20.48mm x 20.48mm x 20.48mm
# 
# z [mm]		 delta[ppm]
0.000000000000000000e+00 2.390662367307300862e+00
2.000000000000000042e-02 2.388144179844089443e+00
4.000000000000000083e-02 2.385549496223696497e+00
5.999999999999999778e-02 2.382878737750101283e+00
8.000000000000000167e-02 2.380132349996626928e+00
1.000000000000000056e-01 2.377310795446781810e+00
1.199999999999999956e-01 2.374414543896633756e+00
1.400000000000000133e-01 2.371444078700121860e+00
1.600000000000000033e-01 2.368399891700545989e+00
1.799999999999999933e-01 2.365282487527753386e+00
2.000000000000000111e-01 2.362092379270032794e+00
2.200000000000000011e-01 2.358830092487743002e+00
2.399999999999999911e-01 2.355496160722805321e+00
2.600000000000000089e-01 2.352091129649642731e+00
2.800000000000000266e-01 2.348615552456201350e+00
2.999999999999999889e-01 2.345069994146645964e+00
3.200000000000000067e-01 2.341455026728445521e+00
3.400000000000000244e-01 2.337771233685911554e+00
3.599999999999999867e-01 2.334019205001338637e+00
3.800000000000000044e-01 2.330199541797295826e+00
4.000000000000000222e-01 2.326312851169622942e+00
4.199999999999999845e-01 2.322359751002287087e+00
4.400000000000000022e-01 2.318340864628755327e+00
4.600000000000000200e-01 2.314256825817085694e+00
4.799999999999999822e-01 2.310108273249891653e+00
5.000000000000000000e-01 2.305895855679704898e+00
5.200000000000000178e-01 2.301620226239326605e+00
5.400000000000000355e-01 2.297282047764843682e+00
5.600000000000000533e-01 2.292881986931955218e+00
5.799999999999999600e-01 2.288420719745206888e+00
5.999999999999999778e-01 2.283898925509665556e+00
6.199999999999999956e-01 2.279317292483536317e+00
6.400000000000000133e-01 2.274676511683605629e+00
6.600000000000000311e-01 2.269977282699036980e+00
6.800000000000000488e-01 2.265220307338625449e+00
7.000000000000000666e-01 2.260406295602670035e+00
7.199999999999999734e-01 2.255535959172223937e+00
7.399999999999999911e-01 2.250610017536336382e+00
7.600000000000000089e-01 2.245629191330509755e+00
7.800000000000000266e-01 2.240594208615992233e+00
8.000000000000000444e-01 2.235505798068795791e+00
8.200000000000000622e-01 2.230364695407941245e+00
8.399999999999999689e-01 2.225171636441741541e+00
8.599999999999999867e-01 2.219927363641455376e+00
8.800000000000000044e-01 2.214632619047040674e+00
9.000000000000000222e-01 2.209288150982760879e+00
9.200000000000000400e-01 2.203894706828813721e+00
9.400000000000000577e-01 2.198453039875139847e+00
9.599999999999999645e-01 2.192963901961716200e+00
9.799999999999999822e-01 2.187428050466845963e+00
1.000000000000000000e+00 2.181846240822345795e+00
1.020000000000000018e+00 2.176219233632291861e+00
1.040000000000000036e+00 2.170547787066413825e+00
1.060000000000000053e+00 2.164832664105317050e+00
1.080000000000000071e+00 2.159074624818163812e+00
1.100000000000000089e+00 2.153274433730138604e+00
1.120000000000000107e+00 2.147432851988137603e+00
1.140000000000000124e+00 2.141550644846223150e+00
1.159999999999999920e+00 2.135628573725356194e+00
1.179999999999999938e+00 2.129667403812371962e+00
1.199999999999999956e+00 2.123667896017818801e+00
1.219999999999999973e+00 2.117630814683955975e+00
1.239999999999999991e+00 2.111556919446698988e+00
1.260000000000000009e+00 2.105446973047968573e+00
1.280000000000000027e+00 2.099301733106083478e+00
1.300000000000000044e+00 2.093121960027715556e+00
1.320000000000000062e+00 2.086908408692758954e+00
1.340000000000000080e+00 2.080661836460980130e+00
1.360000000000000098e+00 2.074382994775961553e+00
1.380000000000000115e+00 2.068072637261498592e+00
1.400000000000000133e+00 2.061731511250632920e+00
1.419999999999999929e+00 2.055360365966688363e+00
1.439999999999999947e+00 2.048959943982230136e+00
1.459999999999999964e+00 2.042530989479545145e+00
1.479999999999999982e+00 2.036074239645606632e+00
1.500000000000000000e+00 2.029590433006676076e+00
1.520000000000000018e+00 2.023080300764312334e+00
1.540000000000000036e+00 2.016544575198682132e+00
1.560000000000000053e+00 2.009983980951747906e+00
1.580000000000000071e+00 2.003399243493776183e+00
1.600000000000000089e+00 1.996791080358905512e+00
1.620000000000000107e+00 1.990160209669260549e+00
1.640000000000000124e+00 1.983507341329092233e+00
1.660000000000000142e+00 1.976833185600772147e+00
1.679999999999999938e+00 1.970138444262892641e+00
1.699999999999999956e+00 1.963423819232360756e+00
1.719999999999999973e+00 1.956690003692707069e+00
1.739999999999999991e+00 1.949937690756377906e+00
1.760000000000000009e+00 1.943167564568804018e+00
1.780000000000000027e+00 1.936380309004900768e+00
1.800000000000000044e+00 1.929576598755242678e+00
1.820000000000000062e+00 1.922757108050681341e+00
1.840000000000000080e+00 1.915922501736333716e+00
1.860000000000000098e+00 1.909073444018161148e+00
1.880000000000000115e+00 1.902210589531169393e+00
1.900000000000000133e+00 1.895334592101713955e+00
1.919999999999999929e+00 1.888446095815740078e+00
1.939999999999999947e+00 1.881545743790504766e+00
1.959999999999999964e+00 1.874634169249352444e+00
1.979999999999999982e+00 1.867712004296412154e+00
2.000000000000000000e+00 1.860779871003912955e+00
2.020000000000000018e+00 1.853838390183387252e+00
2.040000000000000036e+00 1.846888172492073821e+00
2.060000000000000053e+00 1.839929827194073830e+00
2.080000000000000071e+00 1.832963953291949499e+00
2.100000000000000089e+00 1.825991148271206566e+00
2.120000000000000107e+00 1.819011999263757007e+00
2.140000000000000124e+00 1.812027091769004450e+00
2.160000000000000142e+00 1.805037000855411078e+00
2.180000000000000160e+00 1.798042299851421610e+00
2.200000000000000178e+00 1.791043551591879224e+00
2.220000000000000195e+00 1.784041317071937582e+00
2.240000000000000213e+00 1.777036146744694012e+00
2.260000000000000231e+00 1.770028589131193097e+00
2.280000000000000249e+00 1.763019182176090549e+00
2.300000000000000266e+00 1.756008461806778609e+00
2.319999999999999840e+00 1.748996953353577632e+00
2.339999999999999858e+00 1.741985180050950044e+00
2.359999999999999876e+00 1.734973654529132325e+00
2.379999999999999893e+00 1.727962887250346524e+00
2.399999999999999911e+00 1.720953378078470264e+00
2.419999999999999929e+00 1.713945624643103960e+00
2.439999999999999947e+00 1.706940113994287023e+00
2.459999999999999964e+00 1.699937330887206999e+00
2.479999999999999982e+00 1.692937749528675928e+00
2.500000000000000000e+00 1.685941841775233430e+00
2.520000000000000018e+00 1.678950068978467769e+00
2.540000000000000036e+00 1.671962890089206066e+00
2.560000000000000053e+00 1.664980753608499286e+00
2.580000000000000071e+00 1.658004105590545008e+00
2.600000000000000089e+00 1.651033381706506376e+00
2.620000000000000107e+00 1.644069015138760248e+00
2.640000000000000124e+00 1.637111428764489007e+00
2.660000000000000142e+00 1.630161042933789606e+00
2.680000000000000160e+00 1.623218267780302648e+00
2.700000000000000178e+00 1.616283510875685225e+00
2.720000000000000195e+00 1.609357169674296983e+00
2.740000000000000213e+00 1.602439639036497887e+00
2.760000000000000231e+00 1.595531303814750501e+00
2.780000000000000249e+00 1.588632546238143872e+00
2.800000000000000266e+00 1.581743738647028108e+00
2.819999999999999840e+00 1.574865250731166011e+00
2.839999999999999858e+00 1.567997442420312249e+00
2.859999999999999876e+00 1.561140670968321320e+00
2.879999999999999893e+00 1.554295284006901978e+00
2.899999999999999911e+00 1.547461626467976581e+00
2.919999999999999929e+00 1.540640033808137188e+00
2.939999999999999947e+00 1.533830838761473192e+00
2.959999999999999964e+00 1.527034364742067662e+00
2.979999999999999982e+00 1.520250932419533241e+00
3.000000000000000000e+00 1.513480853307114682e+00
3.020000000000000018e+00 1.506724436152125701e+00
3.040000000000000036e+00 1.499981980717061125e+00
3.060000000000000053e+00 1.493253783977087412e+00
3.080000000000000071e+00 1.486540134101848265e+00
3.100000000000000089e+00 1.479841316452099820e+00
3.120000000000000107e+00 1.473157607769714827e+00
3.140000000000000124e+00 1.466489281965563718e+00
3.160000000000000142e+00 1.459836604525450721e+00
3.180000000000000160e+00 1.453199838081277173e+00
3.200000000000000178e+00 1.446579237040509280e+00
3.220000000000000195e+00 1.439975052932667365e+00
3.240000000000000213e+00 1.433387529270101934e+00
3.260000000000000231e+00 1.426816906661803719e+00
3.280000000000000249e+00 1.420263417913190329e+00
3.300000000000000266e+00 1.413727292899181087e+00
3.320000000000000284e+00 1.407208753910873078e+00
3.339999999999999858e+00 1.400708020279818999e+00
3.359999999999999876e+00 1.394225303979348185e+00
3.379999999999999893e+00 1.387760813991949949e+00
3.399999999999999911e+00 1.381314752173210758e+00
3.419999999999999929e+00 1.374887317354150928e+00
3.439999999999999947e+00 1.368478701475614567e+00
3.459999999999999964e+00 1.362089093417448993e+00
3.479999999999999982e+00 1.355718675411333729e+00
3.500000000000000000e+00 1.349367626588616531e+00
3.520000000000000018e+00 1.343036119679519524e+00
3.540000000000000036e+00 1.336724324271434394e+00
3.560000000000000053e+00 1.330432403802577435e+00
3.580000000000000071e+00 1.324160518522488283e+00
3.600000000000000089e+00 1.317908822788163015e+00
3.620000000000000107e+00 1.311677467718510348e+00
3.640000000000000124e+00 1.305466598801072742e+00
3.660000000000000142e+00 1.299276358232176687e+00
3.680000000000000160e+00 1.293106882842322003e+00
3.700000000000000178e+00 1.286958306113691108e+00
3.720000000000000195e+00 1.280830756432443707e+00
3.740000000000000213e+00 1.274724358775255473e+00
3.760000000000000231e+00 1.268639233296628976e+00
3.780000000000000249e+00 1.262575496676134890e+00
3.800000000000000266e+00 1.256533261049004757e+00
3.820000000000000284e+00 1.250512635005678774e+00
3.839999999999999858e+00 1.244513722873916706e+00
3.859999999999999876e+00 1.238536625362234300e+00
3.879999999999999893e+00 1.232581439201862805e+00
3.899999999999999911e+00 1.226648257425646316e+00
3.919999999999999929e+00 1.220737169378135700e+00
3.939999999999999947e+00 1.214848260621490761e+00
3.959999999999999964e+00 1.208981613322101190e+00
3.979999999999999982e+00 1.203137305775008992e+00
4.000000000000000000e+00 1.197315413175430221e+00
4.020000000000000462e+00 1.191516006753164270e+00
4.040000000000000036e+00 1.185739154937474504e+00
4.060000000000000497e+00 1.179984922092980781e+00
4.080000000000000071e+00 1.174253370086292936e+00
4.099999999999999645e+00 1.168544556614847130e+00
4.120000000000000107e+00 1.162858537183796726e+00
4.139999999999999680e+00 1.157195363019201784e+00
4.160000000000000142e+00 1.151555083463703166e+00
4.179999999999999716e+00 1.145937743465429426e+00
4.200000000000000178e+00 1.140343386401021952e+00
4.219999999999999751e+00 1.134772051131649251e+00
4.240000000000000213e+00 1.129223775261942064e+00
4.259999999999999787e+00 1.123698591754439091e+00
4.280000000000000249e+00 1.118196532633061846e+00
4.299999999999999822e+00 1.112717625147328082e+00
4.320000000000000284e+00 1.107261895928999484e+00
4.339999999999999858e+00 1.101829366697303580e+00
4.360000000000000320e+00 1.096420058877502601e+00
4.379999999999999893e+00 1.091033988838374436e+00
4.400000000000000355e+00 1.085671172981363730e+00
4.419999999999999929e+00 1.080331622501587319e+00
4.440000000000000391e+00 1.075015348956311234e+00
4.459999999999999964e+00 1.069722358540691420e+00
4.480000000000000426e+00 1.064452658144364072e+00
4.500000000000000000e+00 1.059206249133034072e+00
4.520000000000000462e+00 1.053983133902045566e+00
4.540000000000000036e+00 1.048783309154993848e+00
4.560000000000000497e+00 1.043606772963055374e+00
4.580000000000000071e+00 1.038453517531736869e+00
4.600000000000000533e+00 1.033323536774898077e+00
4.620000000000000107e+00 1.028216818560698131e+00
4.639999999999999680e+00 1.023133352809221908e+00
4.660000000000000142e+00 1.018073123208665498e+00
4.679999999999999716e+00 1.013036115845533658e+00
4.700000000000000178e+00 1.008022310382088671e+00
4.719999999999999751e+00 1.003031689228105261e+00
4.740000000000000213e+00 9.980642281705345287e-01
4.759999999999999787e+00 9.931199060958795233e-01
4.780000000000000249e+00 9.881986950630260447e-01
4.799999999999999822e+00 9.833005705852871925e-01
4.820000000000000284e+00 9.784255011373022004e-01
4.839999999999999858e+00 9.735734590058788829e-01
4.860000000000000320e+00 9.687444092218504554e-01
4.879999999999999893e+00 9.639383209888174875e-01
4.900000000000000355e+00 9.591551560308106961e-01
4.919999999999999929e+00 9.543948806081503644e-01
4.940000000000000391e+00 9.496574532716982597e-01
4.959999999999999964e+00 9.449428374750472592e-01
4.980000000000000426e+00 9.402509887261220056e-01
5.000000000000000000e+00 9.355818678049874215e-01
5.020000000000000462e+00 9.309354273035240768e-01
5.040000000000000036e+00 9.263116254581402753e-01
5.060000000000000497e+00 9.217104120682004798e-01
5.080000000000000071e+00 9.171317429530142507e-01
5.100000000000000533e+00 9.125755652396639883e-01
5.120000000000000107e+00 9.080418324536480013e-01
5.139999999999999680e+00 9.035304891666872118e-01
5.160000000000000142e+00 8.990414867304979962e-01
5.179999999999999716e+00 8.945747672751356294e-01
5.200000000000000178e+00 8.901302800953513339e-01
5.219999999999999751e+00 8.857079649899841645e-01
5.240000000000000213e+00 8.813077693104606203e-01
5.259999999999999787e+00 8.769296306316882728e-01
5.280000000000000249e+00 8.725734944722641773e-01
5.299999999999999822e+00 8.682392962872962361e-01
5.320000000000000284e+00 8.639269798699469316e-01
5.339999999999999858e+00 8.596364786565664495e-01
5.360000000000000320e+00 8.553677348192388896e-01
5.379999999999999893e+00 8.511206798735135859e-01
5.400000000000000355e+00 8.468952544717287534e-01
5.419999999999999929e+00 8.426913883036105668e-01
5.440000000000000391e+00 8.385090206001258872e-01
5.459999999999999964e+00 8.343480793171674792e-01
5.480000000000000426e+00 8.302085023597866043e-01
5.500000000000000000e+00 8.260902160391369042e-01
5.520000000000000462e+00 8.219931570269525256e-01
5.540000000000000036e+00 8.179172500758449260e-01
5.560000000000000497e+00 8.138624307140166492e-01
5.580000000000000071e+00 8.098286222189532424e-01
5.600000000000000533e+00 8.058157590623333810e-01
5.620000000000000107e+00 8.018237631271459831e-01
5.639999999999999680e+00 7.978525679128602999e-01
5.660000000000000142e+00 7.939020939858981718e-01
5.679999999999999716e+00 7.899722739551776618e-01
5.700000000000000178e+00 7.860630271457993423e-01
5.719999999999999751e+00 7.821742853551807428e-01
5.740000000000000213e+00 7.783059667397818071e-01
5.759999999999999787e+00 7.744580023620208920e-01
5.780000000000000249e+00 7.706303092798012511e-01
5.799999999999999822e+00 7.668228178945560858e-01
5.820000000000000284e+00 7.630354442332613063e-01
5.839999999999999858e+00 7.592681181079333763e-01
5.860000000000000320e+00 7.555207545797630875e-01
5.879999999999999893e+00 7.517932829405425954e-01
5.900000000000000355e+00 7.480856173484702332e-01
5.919999999999999929e+00 7.443976866419678151e-01
5.940000000000000391e+00 7.407294041366637716e-01
5.959999999999999964e+00 7.370806982821999087e-01
5.980000000000000426e+00 7.334514816098012258e-01
6.000000000000000000e+00 7.298416822426959660e-01
6.020000000000000462e+00 7.262512119836199709e-01
6.040000000000000036e+00 7.226799986895825478e-01
6.060000000000000497e+00 7.191279534886059199e-01
6.080000000000000071e+00 7.155950040295725456e-01
6.100000000000000533e+00 7.120810608173914202e-01
6.120000000000000107e+00 7.085860513488588808e-01
6.140000000000000568e+00 7.051098855553570299e-01
6.160000000000000142e+00 7.016524908356125412e-01
6.179999999999999716e+00 6.982137765950106045e-01
6.200000000000000178e+00 6.947936701862911235e-01
6.219999999999999751e+00 6.913920805344307974e-01
6.240000000000000213e+00 6.880089349963578460e-01
6.259999999999999787e+00 6.846441420603023298e-01
6.280000000000000249e+00 6.812976291357080161e-01
6.299999999999999822e+00 6.779693043158665500e-01
6.320000000000000284e+00 6.746590951092724664e-01
6.339999999999999858e+00 6.713669092542585703e-01
6.360000000000000320e+00 6.680926744031505660e-01
6.379999999999999893e+00 6.648362979775653825e-01
6.400000000000000355e+00 6.615977078167502023e-01
6.419999999999999929e+00 6.583768110620936698e-01
6.440000000000000391e+00 6.551735357812069616e-01
6.459999999999999964e+00 6.519877888701116619e-01
6.480000000000000426e+00 6.488194986646198537e-01
6.500000000000000000e+00 6.456685718485908332e-01
6.520000000000000462e+00 6.425349370643269609e-01
6.540000000000000036e+00 6.394185008151826999e-01
6.560000000000000497e+00 6.363191920867300455e-01
6.580000000000000071e+00 6.332369172319216588e-01
6.600000000000000533e+00 6.301716056149248013e-01
6.620000000000000107e+00 6.271231634669310884e-01
6.640000000000000568e+00 6.240915205646075936e-01
6.660000000000000142e+00 6.210765830445633684e-01
6.679999999999999716e+00 6.180782811284951661e-01
6.700000000000000178e+00 6.150965208842341658e-01
6.719999999999999751e+00 6.121312330097162802e-01
6.740000000000000213e+00 6.091823235284122839e-01
6.759999999999999787e+00 6.062497236444160942e-01
6.780000000000000249e+00 6.033333393599752403e-01
6.799999999999999822e+00 6.004331024140168171e-01
6.820000000000000284e+00 5.975489188093876525e-01
6.839999999999999858e+00 5.946807208473219308e-01
6.860000000000000320e+00 5.918284145518918349e-01
6.879999999999999893e+00 5.889919328129454845e-01
6.900000000000000355e+00 5.861711816951736820e-01
6.919999999999999929e+00 5.833660947022221155e-01
6.940000000000000391e+00 5.805765779576715913e-01
6.959999999999999964e+00 5.778025656030498780e-01
6.980000000000000426e+00 5.750439638379437612e-01
7.000000000000000000e+00 5.723007074648142067e-01
7.020000000000000462e+00 5.695727027753071381e-01
7.040000000000000036e+00 5.668598852548495381e-01
7.060000000000000497e+00 5.641621613021193804e-01
7.080000000000000071e+00 5.614794671065568288e-01
7.100000000000000533e+00 5.588117091878672671e-01
7.120000000000000107e+00 5.561588244596112895e-01
7.140000000000000568e+00 5.535207195754909826e-01
7.160000000000000142e+00 5.508973321923886779e-01
7.179999999999999716e+00 5.482885691100561898e-01
7.200000000000000178e+00 5.456943687470127147e-01
7.219999999999999751e+00 5.431146380601670209e-01
7.240000000000000213e+00 5.405493162471481927e-01
7.259999999999999787e+00 5.379983104322672016e-01
7.280000000000000249e+00 5.354615606089210278e-01
7.299999999999999822e+00 5.329389740781736995e-01
7.320000000000000284e+00 5.304304916450646168e-01
7.339999999999999858e+00 5.279360207959777895e-01
7.360000000000000320e+00 5.254555031627115014e-01
7.379999999999999893e+00 5.229888464246926771e-01
7.400000000000000355e+00 5.205359930548664193e-01
7.419999999999999929e+00 5.180968509326923099e-01
7.440000000000000391e+00 5.156713633859619783e-01
7.459999999999999964e+00 5.132594385003660387e-01
7.480000000000000426e+00 5.108610204715648972e-01
7.500000000000000000e+00 5.084760175970047813e-01
7.520000000000000462e+00 5.061043749525884206e-01
7.540000000000000036e+00 5.037460010523197029e-01
7.560000000000000497e+00 5.014008418640985010e-01
7.580000000000000071e+00 4.990688061226355443e-01
7.600000000000000533e+00 4.967498406989898085e-01
7.620000000000000107e+00 4.944438545520699058e-01
7.640000000000000568e+00 4.921507954666885509e-01
7.660000000000000142e+00 4.898705726288321016e-01
7.679999999999999716e+00 4.876031347471144195e-01
7.700000000000000178e+00 4.853483912368648512e-01
7.719999999999999751e+00 4.831062917400111290e-01
7.740000000000000213e+00 4.808767459029457125e-01
7.759999999999999787e+00 4.786597043099317106e-01
7.780000000000000249e+00 4.764550768395490188e-01
7.799999999999999822e+00 4.742628150269322385e-01
7.820000000000000284e+00 4.720828289834765323e-01
7.839999999999999858e+00 4.699150712032619248e-01
7.860000000000000320e+00 4.677594520305803916e-01
7.879999999999999893e+00 4.656159249260928279e-01
