# Electrodo circular de radio 6 mm y espesor 710.0 um.
# Volumen de simulacion (convencion z,y,x):
# N: 1024 x 1024 x 1024 | voxelSize:  0.02mm x 0.02mm x 0.02mm | FOV:  20.48mm x 20.48mm x 20.48mm
# 
# z [mm]		 delta[ppm]
0.000000000000000000e+00 2.361239600451411125e+00
2.000000000000000042e-02 2.358874197507926151e+00
4.000000000000000083e-02 2.356436593498085319e+00
5.999999999999999778e-02 2.353927158950211318e+00
8.000000000000000167e-02 2.351346281643944103e+00
1.000000000000000056e-01 2.348694362913675171e+00
1.199999999999999956e-01 2.345971811832016307e+00
1.400000000000000133e-01 2.343179049239083156e+00
1.600000000000000033e-01 2.340316503782422952e+00
1.799999999999999933e-01 2.337384615550440525e+00
2.000000000000000111e-01 2.334383832154384830e+00
2.200000000000000011e-01 2.331314612427601851e+00
2.399999999999999911e-01 2.328177422325605317e+00
2.600000000000000089e-01 2.324972738795650251e+00
2.800000000000000266e-01 2.321701045499298566e+00
2.999999999999999889e-01 2.318362836853189890e+00
3.200000000000000067e-01 2.314958613568361301e+00
3.400000000000000244e-01 2.311488886862888226e+00
3.599999999999999867e-01 2.307954173823652866e+00
3.800000000000000044e-01 2.304355001788235491e+00
4.000000000000000222e-01 2.300691903530179161e+00
4.199999999999999845e-01 2.296965421808322638e+00
4.400000000000000022e-01 2.293176104379670566e+00
4.600000000000000200e-01 2.289324508713643791e+00
4.799999999999999822e-01 2.285411196835106740e+00
5.000000000000000000e-01 2.281436740201119306e+00
5.200000000000000178e-01 2.277401714377937481e+00
5.400000000000000355e-01 2.273306704077604934e+00
5.600000000000000533e-01 2.269152297672071050e+00
5.799999999999999600e-01 2.264939092386921704e+00
5.999999999999999778e-01 2.260667688656419205e+00
6.199999999999999956e-01 2.256338695471526101e+00
6.400000000000000133e-01 2.251952724579361576e+00
6.600000000000000311e-01 2.247510395982577958e+00
6.800000000000000488e-01 2.243012331987167318e+00
7.000000000000000666e-01 2.238459162850103379e+00
7.199999999999999734e-01 2.233851520679279723e+00
7.399999999999999911e-01 2.229190045226267625e+00
7.600000000000000089e-01 2.224475377642421314e+00
7.800000000000000266e-01 2.219708166413477901e+00
8.000000000000000444e-01 2.214889060975849144e+00
8.200000000000000622e-01 2.210018717789666187e+00
8.399999999999999689e-01 2.205097793819468244e+00
8.599999999999999867e-01 2.200126952742191389e+00
8.800000000000000044e-01 2.195106858296496988e+00
9.000000000000000222e-01 2.190038180622063901e+00
9.200000000000000400e-01 2.184921589481933601e+00
9.400000000000000577e-01 2.179757760729422067e+00
9.599999999999999645e-01 2.174547369407849651e+00
9.799999999999999822e-01 2.169291096341253500e+00
1.000000000000000000e+00 2.163989621116065631e+00
1.020000000000000018e+00 2.158643628791660607e+00
1.040000000000000036e+00 2.153253802768564373e+00
1.060000000000000053e+00 2.147820831614823955e+00
1.080000000000000071e+00 2.142345401825415774e+00
1.100000000000000089e+00 2.136828204760282457e+00
1.120000000000000107e+00 2.131269929299709709e+00
1.140000000000000124e+00 2.125671268889763876e+00
1.159999999999999920e+00 2.120032914098485488e+00
1.179999999999999938e+00 2.114355559764359516e+00
1.199999999999999956e+00 2.108639897458237211e+00
1.219999999999999973e+00 2.102886622730383959e+00
1.239999999999999991e+00 2.097096427483098768e+00
1.260000000000000009e+00 2.091270007311783807e+00
1.280000000000000027e+00 2.085408053793321059e+00
1.300000000000000044e+00 2.079511261916483278e+00
1.320000000000000062e+00 2.073580322291209921e+00
1.340000000000000080e+00 2.067615928663574465e+00
1.360000000000000098e+00 2.061618770051174554e+00
1.380000000000000115e+00 2.055589538337776023e+00
1.400000000000000133e+00 2.049528920340078830e+00
1.419999999999999929e+00 2.043437605477074648e+00
1.439999999999999947e+00 2.037316277773529638e+00
1.459999999999999964e+00 2.031165623598975234e+00
1.479999999999999982e+00 2.024986323613315431e+00
1.500000000000000000e+00 2.018779060570283779e+00
1.520000000000000018e+00 2.012544511210657916e+00
1.540000000000000036e+00 2.006283354124890117e+00
1.560000000000000053e+00 1.999996261599479963e+00
1.580000000000000071e+00 1.993683907533432720e+00
1.600000000000000089e+00 1.987346959243373679e+00
1.620000000000000107e+00 1.980986085428378951e+00
1.640000000000000124e+00 1.974601947939510049e+00
1.660000000000000142e+00 1.968195209787457545e+00
1.679999999999999938e+00 1.961766526882226191e+00
1.699999999999999956e+00 1.955316556077962842e+00
1.719999999999999973e+00 1.948845946888571934e+00
1.739999999999999991e+00 1.942355349564004019e+00
1.760000000000000009e+00 1.935845406787658041e+00
1.780000000000000027e+00 1.929316761778298916e+00
1.800000000000000044e+00 1.922770049975172313e+00
1.820000000000000062e+00 1.916205907159650446e+00
1.840000000000000080e+00 1.909624961134029020e+00
1.860000000000000098e+00 1.903027839856907821e+00
1.880000000000000115e+00 1.896415163121703440e+00
1.900000000000000133e+00 1.889787550699706609e+00
1.919999999999999929e+00 1.883145614024379855e+00
1.939999999999999947e+00 1.876489964335954275e+00
1.959999999999999964e+00 1.869821204377660750e+00
1.979999999999999982e+00 1.863139936535624042e+00
2.000000000000000000e+00 1.856446754553236600e+00
2.020000000000000018e+00 1.849742251660048797e+00
2.040000000000000036e+00 1.843027012310535895e+00
2.060000000000000053e+00 1.836301620295609061e+00
2.080000000000000071e+00 1.829566650512074677e+00
2.100000000000000089e+00 1.822822677050317086e+00
2.120000000000000107e+00 1.816070265000831796e+00
2.140000000000000124e+00 1.809309978511538519e+00
2.160000000000000142e+00 1.802542372637803814e+00
2.180000000000000160e+00 1.795768001362794353e+00
2.200000000000000178e+00 1.788987409497462933e+00
2.220000000000000195e+00 1.782201140657278637e+00
2.240000000000000213e+00 1.775409729218697663e+00
2.260000000000000231e+00 1.768613708245538430e+00
2.280000000000000249e+00 1.761813601508514848e+00
2.300000000000000266e+00 1.755009931354461372e+00
2.319999999999999840e+00 1.748203210795556739e+00
2.339999999999999858e+00 1.741393951314530009e+00
2.359999999999999876e+00 1.734582655030271203e+00
2.379999999999999893e+00 1.727769822432097424e+00
2.399999999999999911e+00 1.720955944628457246e+00
2.419999999999999929e+00 1.714141511003281604e+00
2.439999999999999947e+00 1.707327001554584500e+00
2.459999999999999964e+00 1.700512894465841196e+00
2.479999999999999982e+00 1.693699658541306663e+00
2.500000000000000000e+00 1.686887760685335191e+00
2.520000000000000018e+00 1.680077658441294641e+00
2.540000000000000036e+00 1.673269807371674744e+00
2.560000000000000053e+00 1.666464653707521837e+00
2.580000000000000071e+00 1.659662641622119406e+00
2.600000000000000089e+00 1.652864205997926605e+00
2.620000000000000107e+00 1.646069779586578852e+00
2.640000000000000124e+00 1.639279785900343844e+00
2.660000000000000142e+00 1.632494646251121839e+00
2.680000000000000160e+00 1.625714772773508399e+00
2.700000000000000178e+00 1.618940575335428012e+00
2.720000000000000195e+00 1.612172454699902335e+00
2.740000000000000213e+00 1.605410809299917085e+00
2.760000000000000231e+00 1.598656028546074026e+00
2.780000000000000249e+00 1.591908499458221105e+00
2.800000000000000266e+00 1.585168600126184213e+00
2.819999999999999840e+00 1.578436706190673666e+00
2.839999999999999858e+00 1.571713184464343716e+00
2.859999999999999876e+00 1.564998399254435402e+00
2.879999999999999893e+00 1.558292706151448215e+00
2.899999999999999911e+00 1.551596458185922511e+00
2.919999999999999929e+00 1.544909999792098754e+00
2.939999999999999947e+00 1.538233672791172069e+00
2.959999999999999964e+00 1.531567810537327379e+00
2.979999999999999982e+00 1.524912743719803787e+00
3.000000000000000000e+00 1.518268794698730328e+00
3.020000000000000018e+00 1.511636283118295898e+00
3.040000000000000036e+00 1.505015520439833221e+00
3.060000000000000053e+00 1.498406815358337640e+00
3.080000000000000071e+00 1.491810468540346601e+00
3.100000000000000089e+00 1.485226777835994216e+00
3.120000000000000107e+00 1.478656033229224898e+00
3.140000000000000124e+00 1.472098521837571949e+00
3.160000000000000142e+00 1.465554523082315486e+00
3.180000000000000160e+00 1.459024313468091139e+00
3.200000000000000178e+00 1.452508161980628376e+00
3.220000000000000195e+00 1.446006334638319846e+00
3.240000000000000213e+00 1.439519090125188194e+00
3.260000000000000231e+00 1.433046684106474400e+00
3.280000000000000249e+00 1.426589365104577567e+00
3.300000000000000266e+00 1.420147378570672192e+00
3.320000000000000284e+00 1.413720963011379839e+00
3.339999999999999858e+00 1.407310353808412406e+00
3.359999999999999876e+00 1.400915779603770783e+00
3.379999999999999893e+00 1.394537465859372549e+00
3.399999999999999911e+00 1.388175631508628438e+00
3.419999999999999929e+00 1.381830492247967168e+00
3.439999999999999947e+00 1.375502257462650535e+00
3.459999999999999964e+00 1.369191133242134706e+00
3.479999999999999982e+00 1.362897319588012968e+00
3.500000000000000000e+00 1.356621013145053345e+00
3.520000000000000018e+00 1.350362404699252172e+00
3.540000000000000036e+00 1.344121681616393227e+00
3.560000000000000053e+00 1.337899025638176198e+00
3.580000000000000071e+00 1.331694615020078354e+00
3.600000000000000089e+00 1.325508622633624345e+00
3.620000000000000107e+00 1.319341217795331866e+00
3.640000000000000124e+00 1.313192564683140828e+00
3.660000000000000142e+00 1.307062823848206268e+00
3.680000000000000160e+00 1.300952150953602615e+00
3.700000000000000178e+00 1.294860697960651397e+00
3.720000000000000195e+00 1.288788612198052741e+00
3.740000000000000213e+00 1.282736037214430525e+00
3.760000000000000231e+00 1.276703112186048372e+00
3.780000000000000249e+00 1.270689972427253123e+00
3.800000000000000266e+00 1.264696749144963217e+00
3.820000000000000284e+00 1.258723569598628966e+00
3.839999999999999858e+00 1.252770557209761382e+00
3.859999999999999876e+00 1.246837831363002635e+00
3.879999999999999893e+00 1.240925507878959611e+00
3.899999999999999911e+00 1.235033698447944861e+00
3.919999999999999929e+00 1.229162511474457764e+00
3.939999999999999947e+00 1.223312051135130529e+00
3.959999999999999964e+00 1.217482418603185845e+00
3.979999999999999982e+00 1.211673710722102060e+00
4.000000000000000000e+00 1.205886021618464810e+00
4.020000000000000462e+00 1.200119440982807761e+00
4.040000000000000036e+00 1.194374056079260615e+00
4.060000000000000497e+00 1.188649949625049773e+00
4.080000000000000071e+00 1.182947202205390402e+00
4.099999999999999645e+00 1.177265889743079219e+00
4.120000000000000107e+00 1.171606086327101393e+00
4.139999999999999680e+00 1.165967861263697003e+00
4.160000000000000142e+00 1.160351282327260147e+00
4.179999999999999716e+00 1.154756412384225106e+00
4.200000000000000178e+00 1.149183313074784607e+00
4.219999999999999751e+00 1.143632041000954391e+00
4.240000000000000213e+00 1.138102651847731961e+00
4.259999999999999787e+00 1.132595196126630954e+00
4.280000000000000249e+00 1.127109723744880387e+00
4.299999999999999822e+00 1.121646279295724247e+00
4.320000000000000284e+00 1.116204907084366038e+00
4.339999999999999858e+00 1.110785645956231971e+00
4.360000000000000320e+00 1.105388534788386945e+00
4.379999999999999893e+00 1.100013606846967251e+00
4.400000000000000355e+00 1.094660895752802565e+00
4.419999999999999929e+00 1.089330429359234298e+00
4.440000000000000391e+00 1.084022236200675282e+00
4.459999999999999964e+00 1.078736338881973955e+00
4.480000000000000426e+00 1.073472761018775090e+00
4.500000000000000000e+00 1.068231520129488077e+00
4.520000000000000462e+00 1.063012635076311829e+00
4.540000000000000036e+00 1.057816118450921605e+00
4.560000000000000497e+00 1.052641984525027219e+00
4.580000000000000071e+00 1.047490241120827559e+00
4.600000000000000533e+00 1.042360898080032294e+00
4.620000000000000107e+00 1.037253958610087068e+00
4.639999999999999680e+00 1.032169428280660162e+00
4.660000000000000142e+00 1.027107305836609141e+00
4.679999999999999716e+00 1.022067592730907526e+00
4.700000000000000178e+00 1.017050283395311894e+00
4.719999999999999751e+00 1.012055375318810402e+00
4.740000000000000213e+00 1.007082858766861655e+00
4.759999999999999787e+00 1.002132727414454028e+00
4.780000000000000249e+00 9.972049675047889306e-01
4.799999999999999822e+00 9.922995690460972851e-01
4.820000000000000284e+00 9.874165144005946360e-01
4.839999999999999858e+00 9.825557900542031264e-01
4.860000000000000320e+00 9.777173746265871435e-01
4.879999999999999893e+00 9.729012512229952003e-01
4.900000000000000355e+00 9.681073948561316200e-01
4.919999999999999929e+00 9.633357853893731448e-01
4.940000000000000391e+00 9.585863943611689919e-01
4.959999999999999964e+00 9.538591985289575081e-01
4.980000000000000426e+00 9.491541660867682806e-01
5.000000000000000000e+00 9.444712708191627115e-01
5.020000000000000462e+00 9.398104777026693446e-01
5.040000000000000036e+00 9.351717576791556130e-01
5.060000000000000497e+00 9.305550726316759169e-01
5.080000000000000071e+00 9.259603907866937877e-01
5.100000000000000533e+00 9.213876710548939419e-01
5.120000000000000107e+00 9.168368790717514871e-01
5.139999999999999680e+00 9.123079708937875676e-01
5.160000000000000142e+00 9.078009096870163219e-01
5.179999999999999716e+00 9.033156487690939818e-01
5.200000000000000178e+00 8.988521489552336874e-01
5.219999999999999751e+00 8.944103609366477192e-01
5.240000000000000213e+00 8.899902432935478114e-01
5.259999999999999787e+00 8.855917442002297912e-01
5.280000000000000249e+00 8.812148201148557458e-01
5.299999999999999822e+00 8.768594168014985923e-01
5.320000000000000284e+00 8.725254887063983444e-01
5.339999999999999858e+00 8.682129792872333995e-01
5.360000000000000320e+00 8.639218410856607244e-01
5.379999999999999893e+00 8.596520153539852771e-01
5.400000000000000355e+00 8.554034528338304577e-01
5.419999999999999929e+00 8.511760926703539898e-01
5.440000000000000391e+00 8.469698839069470520e-01
5.459999999999999964e+00 8.427847636770977591e-01
5.480000000000000426e+00 8.386206794250407048e-01
5.500000000000000000e+00 8.344775663653228870e-01
5.520000000000000462e+00 8.303553704394188717e-01
5.540000000000000036e+00 8.262540250329640790e-01
5.560000000000000497e+00 8.221734746784135073e-01
5.580000000000000071e+00 8.181136510198582235e-01
5.600000000000000533e+00 8.140744972718370054e-01
5.620000000000000107e+00 8.100559434216412225e-01
5.639999999999999680e+00 8.060579314544317198e-01
5.660000000000000142e+00 8.020803897828293616e-01
5.679999999999999716e+00 7.981232592486117161e-01
5.700000000000000178e+00 7.941864667693129265e-01
5.719999999999999751e+00 7.902699521268081728e-01
5.740000000000000213e+00 7.863736408206205564e-01
5.759999999999999787e+00 7.824974716537415054e-01
5.780000000000000249e+00 7.786413687822724139e-01
5.799999999999999822e+00 7.748052701089233052e-01
5.820000000000000284e+00 7.709890985185401391e-01
5.839999999999999858e+00 7.671927910897687886e-01
5.860000000000000320e+00 7.634162695059656389e-01
5.879999999999999893e+00 7.596594700956035284e-01
5.900000000000000355e+00 7.559223134079745554e-01
5.919999999999999929e+00 7.522047350929687015e-01
5.940000000000000391e+00 7.485066546309369073e-01
5.959999999999999964e+00 7.448280070625405980e-01
5.980000000000000426e+00 7.411687108620460540e-01
6.000000000000000000e+00 7.375287005280372066e-01
6.020000000000000462e+00 7.339078935893468270e-01
6.040000000000000036e+00 7.303062240674699224e-01
6.060000000000000497e+00 7.267236086042921928e-01
6.080000000000000071e+00 7.231599808071091928e-01
6.100000000000000533e+00 7.196152564872020374e-01
6.120000000000000107e+00 7.160893688984989458e-01
6.140000000000000568e+00 7.125822330759616907e-01
6.160000000000000142e+00 7.090937819789474572e-01
6.179999999999999716e+00 7.056239299183466596e-01
6.200000000000000178e+00 7.021726096157898667e-01
6.219999999999999751e+00 6.987397347083447174e-01
6.240000000000000213e+00 6.953252377348265734e-01
6.259999999999999787e+00 6.919290317068090834e-01
6.280000000000000249e+00 6.885510490333260902e-01
6.299999999999999822e+00 6.851912021468665737e-01
6.320000000000000284e+00 6.818494233778873426e-01
6.339999999999999858e+00 6.785256246243669409e-01
6.360000000000000320e+00 6.752197381875957305e-01
6.379999999999999893e+00 6.719316754738058339e-01
6.400000000000000355e+00 6.686613688027944757e-01
6.419999999999999929e+00 6.654087291300402329e-01
6.440000000000000391e+00 6.621736888398258580e-01
6.459999999999999964e+00 6.589561584761612911e-01
6.480000000000000426e+00 6.557560705321342498e-01
6.500000000000000000e+00 6.525733351778904012e-01
6.520000000000000462e+00 6.494078850580390361e-01
6.540000000000000036e+00 6.462596300048308873e-01
6.560000000000000497e+00 6.431285028555429051e-01
6.580000000000000071e+00 6.400144131389194913e-01
6.600000000000000533e+00 6.369172939245366649e-01
6.620000000000000107e+00 6.338370544704597931e-01
6.640000000000000568e+00 6.307736281167112269e-01
6.660000000000000142e+00 6.277269238820135655e-01
6.679999999999999716e+00 6.246968754135403534e-01
6.700000000000000178e+00 6.216833915205334238e-01
6.719999999999999751e+00 6.186864061926328207e-01
6.740000000000000213e+00 6.157058280580399723e-01
6.759999999999999787e+00 6.127415914828182597e-01
6.780000000000000249e+00 6.097936049411833981e-01
6.799999999999999822e+00 6.068618032082626623e-01
6.820000000000000284e+00 6.039460946299912703e-01
6.839999999999999858e+00 6.010464144219257454e-01
6.860000000000000320e+00 5.981626708261243985e-01
6.879999999999999893e+00 5.952947995286981264e-01
6.900000000000000355e+00 5.924427086909567208e-01
6.919999999999999929e+00 5.896063344984948662e-01
6.940000000000000391e+00 5.867855850537754270e-01
6.959999999999999964e+00 5.839803970696296753e-01
6.980000000000000426e+00 5.811906786103787637e-01
7.000000000000000000e+00 5.784163669427346832e-01
7.020000000000000462e+00 5.756573701124112485e-01
7.040000000000000036e+00 5.729136259655510655e-01
7.060000000000000497e+00 5.701850425476747697e-01
7.080000000000000071e+00 5.674715583088435489e-01
7.100000000000000533e+00 5.647730813117117776e-01
7.120000000000000107e+00 5.620895506337306724e-01
7.140000000000000568e+00 5.594208743709494502e-01
7.160000000000000142e+00 5.567669922506988112e-01
7.179999999999999716e+00 5.541278124176596265e-01
7.200000000000000178e+00 5.515032752705683050e-01
7.219999999999999751e+00 5.488932890169890833e-01
7.240000000000000213e+00 5.462977947476720386e-01
7.259999999999999787e+00 5.437167007463468149e-01
7.280000000000000249e+00 5.411499488154949411e-01
7.299999999999999822e+00 5.385974473273597019e-01
7.320000000000000284e+00 5.360591388150137693e-01
7.339999999999999858e+00 5.335349317506729028e-01
7.360000000000000320e+00 5.310247694160262766e-01
7.379999999999999893e+00 5.285285603938397747e-01
7.400000000000000355e+00 5.260462487316422964e-01
7.419999999999999929e+00 5.235777431324891706e-01
7.440000000000000391e+00 5.211229884262114087e-01
7.459999999999999964e+00 5.186818934450661001e-01
7.480000000000000426e+00 5.162544038168978000e-01
7.500000000000000000e+00 5.138404285113001846e-01
7.520000000000000462e+00 5.114399139691215845e-01
7.540000000000000036e+00 5.090527693046731361e-01
7.560000000000000497e+00 5.066789417861078393e-01
7.580000000000000071e+00 5.043183406790791024e-01
7.600000000000000533e+00 5.019709140926815749e-01
7.620000000000000107e+00 4.996365714498475774e-01
7.640000000000000568e+00 4.973152617136148423e-01
7.660000000000000142e+00 4.950068944694188677e-01
7.679999999999999716e+00 4.927114195466257840e-01
7.700000000000000178e+00 4.904287466977577670e-01
7.719999999999999751e+00 4.881588266302910317e-01
7.740000000000000213e+00 4.859015692677745024e-01
7.759999999999999787e+00 4.836569262070193886e-01
7.780000000000000249e+00 4.814248075459201526e-01
7.799999999999999822e+00 4.792051657812971266e-01
7.820000000000000284e+00 4.769979111881160749e-01
7.839999999999999858e+00 4.748029971733535581e-01
7.860000000000000320e+00 4.726203341912054712e-01
7.879999999999999893e+00 4.704498765684487771e-01
