# Electrodo circular de radio 6 mm y espesor 710.0 um.
# Volumen de simulacion (convencion z,y,x):
# N: 1024 x 1024 x 1024 | voxelSize:  0.02mm x 0.02mm x 0.02mm | FOV:  20.48mm x 20.48mm x 20.48mm
# 
# z [mm]		 delta[ppm]
0.000000000000000000e+00 2.371701763681054675e+00
2.000000000000000042e-02 2.369282798631408227e+00
4.000000000000000083e-02 2.366790095228529456e+00
5.999999999999999778e-02 2.364224062324985276e+00
8.000000000000000167e-02 2.361585113200733055e+00
1.000000000000000056e-01 2.358873670260487554e+00
1.199999999999999956e-01 2.356090163843021834e+00
1.400000000000000133e-01 2.353235036194755825e+00
1.600000000000000033e-01 2.350308737901477762e+00
1.799999999999999933e-01 2.347311731243630017e+00
2.000000000000000111e-01 2.344244486510820291e+00
2.200000000000000011e-01 2.341107485521020770e+00
2.399999999999999911e-01 2.337901217620515393e+00
2.600000000000000089e-01 2.334626183465868365e+00
2.800000000000000266e-01 2.331282890776132266e+00
2.999999999999999889e-01 2.327871858338190769e+00
3.200000000000000067e-01 2.324393611535177318e+00
3.400000000000000244e-01 2.320848686557120288e+00
3.599999999999999867e-01 2.317237625722491146e+00
3.800000000000000044e-01 2.313560981881138456e+00
4.000000000000000222e-01 2.309819313540947938e+00
4.199999999999999845e-01 2.306013189455110801e+00
4.400000000000000022e-01 2.302143183560068529e+00
4.600000000000000200e-01 2.298209879741050621e+00
4.799999999999999822e-01 2.294213866589308370e+00
5.000000000000000000e-01 2.290155742340926892e+00
5.200000000000000178e-01 2.286036109457202592e+00
5.400000000000000355e-01 2.281855579732538164e+00
5.600000000000000533e-01 2.277614768704368409e+00
5.799999999999999600e-01 2.273314300926164933e+00
5.999999999999999778e-01 2.268954804210238319e+00
6.199999999999999956e-01 2.264536915062268729e+00
6.400000000000000133e-01 2.260061272762635465e+00
6.600000000000000311e-01 2.255528524958822167e+00
6.800000000000000488e-01 2.250939321588661723e+00
7.000000000000000666e-01 2.246294320627117536e+00
7.199999999999999734e-01 2.241594181856763957e+00
7.399999999999999911e-01 2.236839572765369155e+00
7.600000000000000089e-01 2.232031162167132710e+00
7.800000000000000266e-01 2.227169626247548440e+00
8.000000000000000444e-01 2.222255642040571022e+00
8.200000000000000622e-01 2.217289893617089280e+00
8.399999999999999689e-01 2.212273065421777929e+00
8.599999999999999867e-01 2.207205848601526466e+00
8.800000000000000044e-01 2.202088934207107052e+00
9.000000000000000222e-01 2.196923019657738507e+00
9.200000000000000400e-01 2.191708801811556029e+00
9.400000000000000577e-01 2.186446983562508883e+00
9.599999999999999645e-01 2.181138266784726554e+00
9.799999999999999822e-01 2.175783359057789745e+00
1.000000000000000000e+00 2.170382966489223353e+00
1.020000000000000018e+00 2.164937800564092907e+00
1.040000000000000036e+00 2.159448570850793114e+00
1.060000000000000053e+00 2.153915991970847710e+00
1.080000000000000071e+00 2.148340776192377177e+00
1.100000000000000089e+00 2.142723640515887595e+00
1.120000000000000107e+00 2.137065299160665344e+00
1.140000000000000124e+00 2.131366470762197540e+00
1.159999999999999920e+00 2.125627870756106486e+00
1.179999999999999938e+00 2.119850218682767462e+00
1.199999999999999956e+00 2.114034230474111098e+00
1.219999999999999973e+00 2.108180625860897273e+00
1.239999999999999991e+00 2.102290120567150034e+00
1.260000000000000009e+00 2.096363433815475741e+00
1.280000000000000027e+00 2.090401280434542652e+00
1.300000000000000044e+00 2.084404378457680007e+00
1.320000000000000062e+00 2.078373441148372081e+00
1.340000000000000080e+00 2.072309184687302075e+00
1.360000000000000098e+00 2.066212320121363355e+00
1.380000000000000115e+00 2.060083561134207208e+00
1.400000000000000133e+00 2.053923615923878288e+00
1.419999999999999929e+00 2.047733195051842259e+00
1.439999999999999947e+00 2.041513003254848080e+00
1.459999999999999964e+00 2.035263747367284992e+00
1.479999999999999982e+00 2.028986128072552741e+00
1.500000000000000000e+00 2.022680847893507661e+00
1.520000000000000018e+00 2.016348602889058483e+00
1.540000000000000036e+00 2.009990090707351573e+00
1.560000000000000053e+00 2.003606002233008887e+00
1.580000000000000071e+00 1.997197029697644455e+00
1.600000000000000089e+00 1.990763858283542742e+00
1.620000000000000107e+00 1.984307174285977915e+00
1.640000000000000124e+00 1.977827656678895929e+00
1.660000000000000142e+00 1.971325985323427510e+00
1.679999999999999938e+00 1.964802832501476804e+00
1.699999999999999956e+00 1.958258871164725301e+00
1.719999999999999973e+00 1.951694766441826934e+00
1.739999999999999991e+00 1.945111183922101805e+00
1.760000000000000009e+00 1.938508781142359583e+00
1.780000000000000027e+00 1.931888215899385308e+00
1.800000000000000044e+00 1.925250137722223531e+00
1.820000000000000062e+00 1.918595196207496079e+00
1.840000000000000080e+00 1.911924032483264035e+00
1.860000000000000098e+00 1.905237287561108106e+00
1.880000000000000115e+00 1.898535593797524124e+00
1.900000000000000133e+00 1.891819583256652892e+00
1.919999999999999929e+00 1.885089879175397831e+00
1.939999999999999947e+00 1.878347104330601258e+00
1.959999999999999964e+00 1.871591872513968857e+00
1.979999999999999982e+00 1.864824796897375014e+00
2.000000000000000000e+00 1.858046481523929261e+00
2.020000000000000018e+00 1.851257529665036428e+00
2.040000000000000036e+00 1.844458535333795890e+00
2.060000000000000053e+00 1.837650091627378801e+00
2.080000000000000071e+00 1.830832782269155912e+00
2.100000000000000089e+00 1.824007189929886197e+00
2.120000000000000107e+00 1.817173887804896859e+00
2.140000000000000124e+00 1.810333447907474858e+00
2.160000000000000142e+00 1.803486432687614549e+00
2.180000000000000160e+00 1.796633403290950337e+00
2.200000000000000178e+00 1.789774911225507470e+00
2.220000000000000195e+00 1.782911506579439864e+00
2.240000000000000213e+00 1.776043729742398103e+00
2.260000000000000231e+00 1.769172119575278534e+00
2.280000000000000249e+00 1.762297205192736582e+00
2.300000000000000266e+00 1.755419514078092380e+00
2.319999999999999840e+00 1.748539563933704688e+00
2.339999999999999858e+00 1.741657870734102165e+00
2.359999999999999876e+00 1.734774940650863018e+00
2.379999999999999893e+00 1.727891278037000156e+00
2.399999999999999911e+00 1.721007377433135810e+00
2.419999999999999929e+00 1.714123731476096868e+00
2.439999999999999947e+00 1.707240822993151053e+00
2.459999999999999964e+00 1.700359132827704345e+00
2.479999999999999982e+00 1.693479132028488321e+00
2.500000000000000000e+00 1.686601289585213381e+00
2.520000000000000018e+00 1.679726064719561762e+00
2.540000000000000036e+00 1.672853914523581009e+00
2.560000000000000053e+00 1.665985286359477735e+00
2.580000000000000071e+00 1.659120625393486037e+00
2.600000000000000089e+00 1.652260367111411998e+00
2.620000000000000107e+00 1.645404944740665121e+00
2.640000000000000124e+00 1.638554781888643452e+00
2.660000000000000142e+00 1.631710299845559264e+00
2.680000000000000160e+00 1.624871910352712279e+00
2.700000000000000178e+00 1.618040022778705955e+00
2.720000000000000195e+00 1.611215037024772201e+00
2.740000000000000213e+00 1.604397350566915126e+00
2.760000000000000231e+00 1.597587351505453279e+00
2.780000000000000249e+00 1.590785425465578440e+00
2.800000000000000266e+00 1.583991948798360472e+00
2.819999999999999840e+00 1.577207295332191395e+00
2.839999999999999858e+00 1.570431829732485074e+00
2.859999999999999876e+00 1.563665914096418863e+00
2.879999999999999893e+00 1.556909901478670477e+00
2.899999999999999911e+00 1.550164142321817540e+00
2.919999999999999929e+00 1.543428978155469533e+00
2.939999999999999947e+00 1.536704747854619413e+00
2.959999999999999964e+00 1.529991781519606242e+00
2.979999999999999982e+00 1.523290406554727916e+00
3.000000000000000000e+00 1.516600941736436559e+00
3.020000000000000018e+00 1.509923703104467441e+00
3.040000000000000036e+00 1.503258998225775800e+00
3.060000000000000053e+00 1.496607131890383080e+00
3.080000000000000071e+00 1.489968400578588259e+00
3.100000000000000089e+00 1.483343097953690126e+00
3.120000000000000107e+00 1.476731509540053944e+00
3.140000000000000124e+00 1.470133918004868701e+00
3.160000000000000142e+00 1.463550598054667029e+00
3.180000000000000160e+00 1.456981821498190888e+00
3.200000000000000178e+00 1.450427852369051696e+00
3.220000000000000195e+00 1.443888951761803430e+00
3.240000000000000213e+00 1.437365373188374207e+00
3.260000000000000231e+00 1.430857367179387829e+00
3.280000000000000249e+00 1.424365176882151030e+00
3.300000000000000266e+00 1.417889042419203216e+00
3.320000000000000284e+00 1.411429196735614955e+00
3.339999999999999858e+00 1.404985869706738111e+00
3.359999999999999876e+00 1.398559284242644640e+00
3.379999999999999893e+00 1.392149660137020240e+00
3.399999999999999911e+00 1.385757210436584952e+00
3.419999999999999929e+00 1.379382145023019257e+00
3.439999999999999947e+00 1.373024667255267506e+00
3.459999999999999964e+00 1.366684977276414248e+00
3.479999999999999982e+00 1.360363268936751302e+00
3.500000000000000000e+00 1.354059732817432637e+00
3.520000000000000018e+00 1.347774553442313783e+00
3.540000000000000036e+00 1.341507912010222459e+00
3.560000000000000053e+00 1.335259983903522407e+00
3.580000000000000071e+00 1.329030941120765918e+00
3.600000000000000089e+00 1.322820950090084713e+00
3.620000000000000107e+00 1.316630173793989611e+00
3.640000000000000124e+00 1.310458769895596953e+00
3.660000000000000142e+00 1.304306892547332453e+00
3.680000000000000160e+00 1.298174690838134637e+00
3.700000000000000178e+00 1.292062310277742210e+00
3.720000000000000195e+00 1.285969891573015111e+00
3.740000000000000213e+00 1.279897571779484489e+00
3.760000000000000231e+00 1.273845483414975055e+00
3.780000000000000249e+00 1.267813755270086551e+00
3.800000000000000266e+00 1.261802511867298193e+00
3.820000000000000284e+00 1.255811873921998778e+00
3.839999999999999858e+00 1.249841958155363475e+00
3.859999999999999876e+00 1.243892877397522412e+00
3.879999999999999893e+00 1.237964740762457216e+00
3.899999999999999911e+00 1.232057653384874163e+00
3.919999999999999929e+00 1.226171716965482883e+00
3.939999999999999947e+00 1.220307029133108179e+00
3.959999999999999964e+00 1.214463684368666030e+00
3.979999999999999982e+00 1.208641772984028862e+00
4.000000000000000000e+00 1.202841382433134543e+00
4.020000000000000462e+00 1.197062595899067716e+00
4.040000000000000036e+00 1.191305494000689080e+00
4.060000000000000497e+00 1.185570152979416036e+00
4.080000000000000071e+00 1.179856646809839038e+00
4.099999999999999645e+00 1.174165044977644845e+00
4.120000000000000107e+00 1.168495415002665849e+00
4.139999999999999680e+00 1.162847819799336380e+00
4.160000000000000142e+00 1.157222320620769462e+00
4.179999999999999716e+00 1.151618973993098649e+00
4.200000000000000178e+00 1.146037835089087853e+00
4.219999999999999751e+00 1.140478954227731156e+00
4.240000000000000213e+00 1.134942380686026153e+00
4.259999999999999787e+00 1.129428158755132694e+00
4.280000000000000249e+00 1.123936331998891536e+00
4.299999999999999822e+00 1.118466938857850312e+00
4.320000000000000284e+00 1.113020017363236969e+00
4.339999999999999858e+00 1.107595600280066206e+00
4.360000000000000320e+00 1.102193720285272516e+00
4.379999999999999893e+00 1.096814404641117902e+00
4.400000000000000355e+00 1.091457680846222189e+00
4.419999999999999929e+00 1.086123570830508589e+00
4.440000000000000391e+00 1.080812097087832768e+00
4.459999999999999964e+00 1.075523276383646198e+00
4.480000000000000426e+00 1.070257126378091561e+00
4.500000000000000000e+00 1.065013658837458355e+00
4.520000000000000462e+00 1.059792886756583119e+00
4.540000000000000036e+00 1.054594817065231060e+00
4.560000000000000497e+00 1.049419458258665783e+00
4.580000000000000071e+00 1.044266812590030735e+00
4.600000000000000533e+00 1.039136884217993329e+00
4.620000000000000107e+00 1.034029670876146723e+00
4.639999999999999680e+00 1.028945172546723796e+00
4.660000000000000142e+00 1.023883382598018921e+00
4.679999999999999716e+00 1.018844296993116183e+00
4.700000000000000178e+00 1.013827904886309916e+00
4.719999999999999751e+00 1.008834198375923918e+00
4.740000000000000213e+00 1.003863162550635124e+00
4.759999999999999787e+00 9.989147857954302490e-01
4.780000000000000249e+00 9.939890492787321064e-01
4.799999999999999822e+00 9.890859378206400265e-01
4.820000000000000284e+00 9.842054288117085825e-01
4.839999999999999858e+00 9.793475036525826072e-01
4.860000000000000320e+00 9.745121360952692102e-01
4.879999999999999893e+00 9.696993042633699211e-01
4.900000000000000355e+00 9.649089784066319231e-01
4.919999999999999929e+00 9.601411335109931722e-01
4.940000000000000391e+00 9.553957364571371569e-01
4.959999999999999964e+00 9.506727592296636553e-01
4.980000000000000426e+00 9.459721654703505678e-01
5.000000000000000000e+00 9.412939242957335528e-01
5.020000000000000462e+00 9.366379962357432865e-01
5.040000000000000036e+00 9.320043476690827999e-01
5.060000000000000497e+00 9.273929361378530078e-01
5.080000000000000071e+00 9.228037254101056908e-01
5.100000000000000533e+00 9.182366701610431559e-01
5.120000000000000107e+00 9.136917316722255045e-01
5.139999999999999680e+00 9.091688618698612334e-01
5.160000000000000142e+00 9.046680196701532006e-01
5.179999999999999716e+00 9.001891543651669991e-01
5.200000000000000178e+00 8.957322226238860763e-01
5.219999999999999751e+00 8.912971712160967508e-01
5.240000000000000213e+00 8.868839546787219419e-01
5.259999999999999787e+00 8.824925173681078538e-01
5.280000000000000249e+00 8.781228118013161277e-01
5.299999999999999822e+00 8.737747800271676857e-01
5.320000000000000284e+00 8.694483726521327061e-01
5.339999999999999858e+00 8.651435295204427112e-01
5.360000000000000320e+00 8.608601994343644259e-01
5.379999999999999893e+00 8.565983201335896080e-01
5.400000000000000355e+00 8.523578387196902861e-01
5.419999999999999929e+00 8.481386909249778450e-01
5.440000000000000391e+00 8.439408222510090818e-01
5.459999999999999964e+00 8.397641665170602066e-01
5.480000000000000426e+00 8.356086677225533776e-01
5.500000000000000000e+00 8.314742578652416505e-01
5.520000000000000462e+00 8.273608795375466674e-01
5.540000000000000036e+00 8.232684630044611040e-01
5.560000000000000497e+00 8.191969495438202742e-01
5.580000000000000071e+00 8.151462677738868789e-01
5.600000000000000533e+00 8.111163577476340203e-01
5.620000000000000107e+00 8.071071465199607387e-01
5.639999999999999680e+00 8.031185730060854677e-01
5.660000000000000142e+00 7.991505627782374832e-01
5.679999999999999716e+00 7.952030536984003861e-01
5.700000000000000178e+00 7.912759699342510888e-01
5.719999999999999751e+00 7.873692483765060146e-01
5.740000000000000213e+00 7.834828118638507144e-01
5.759999999999999787e+00 7.796165963952054190e-01
5.780000000000000249e+00 7.757705235533191024e-01
5.799999999999999822e+00 7.719445285223397457e-01
5.820000000000000284e+00 7.681385316996729440e-01
5.839999999999999858e+00 7.643524675293088544e-01
5.860000000000000320e+00 7.605862552914905983e-01
5.879999999999999893e+00 7.568398287623161469e-01
5.900000000000000355e+00 7.531131061706768381e-01
5.919999999999999929e+00 7.494060206947270597e-01
5.940000000000000391e+00 7.457184895755086806e-01
5.959999999999999964e+00 7.420504454609311296e-01
5.980000000000000426e+00 7.384018046654026168e-01
6.000000000000000000e+00 7.347724993720713416e-01
6.020000000000000462e+00 7.311624450277225407e-01
6.040000000000000036e+00 7.275715734140607571e-01
6.060000000000000497e+00 7.239997991670771293e-01
6.080000000000000071e+00 7.204470537282446907e-01
6.100000000000000533e+00 7.169132509774558404e-01
6.120000000000000107e+00 7.133983220751058951e-01
6.140000000000000568e+00 7.099021801976165280e-01
6.160000000000000142e+00 7.064247562814242043e-01
6.179999999999999716e+00 7.029659628500821711e-01
6.200000000000000178e+00 6.995257306712406864e-01
6.219999999999999751e+00 6.961039716641839181e-01
6.240000000000000213e+00 6.927006164810201039e-01
6.259999999999999787e+00 6.893155764834615340e-01
6.280000000000000249e+00 6.859487822594503292e-01
6.299999999999999822e+00 6.826001446579015308e-01
6.320000000000000284e+00 6.792695942521487229e-01
6.339999999999999858e+00 6.759570414212748846e-01
6.360000000000000320e+00 6.726624167717790703e-01
6.379999999999999893e+00 6.693856302540661662e-01
6.400000000000000355e+00 6.661266125538538585e-01
6.419999999999999929e+00 6.628852732322787489e-01
6.440000000000000391e+00 6.596615430986505491e-01
6.459999999999999964e+00 6.564553313625436370e-01
6.480000000000000426e+00 6.532665689995891256e-01
6.500000000000000000e+00 6.500951649038556601e-01
6.520000000000000462e+00 6.469410502584425071e-01
6.540000000000000036e+00 6.438041336763387079e-01
6.560000000000000497e+00 6.406843465877063437e-01
6.580000000000000071e+00 6.375815973573326634e-01
6.600000000000000533e+00 6.344958177005443067e-01
6.620000000000000107e+00 6.314269157652521169e-01
6.640000000000000568e+00 6.283748235885846523e-01
6.660000000000000142e+00 6.253394491314451242e-01
6.679999999999999716e+00 6.223207247879815052e-01
6.700000000000000178e+00 6.193185583604937650e-01
6.719999999999999751e+00 6.163328826340017663e-01
6.740000000000000213e+00 6.133636052792187376e-01
6.759999999999999787e+00 6.104106595045537542e-01
6.780000000000000249e+00 6.074739528747783446e-01
6.799999999999999822e+00 6.045534190529145979e-01
6.820000000000000284e+00 6.016489655221226585e-01
6.839999999999999858e+00 5.987605264300137620e-01
6.860000000000000320e+00 5.958880092011771268e-01
6.879999999999999893e+00 5.930313484965733517e-01
6.900000000000000355e+00 5.901904517040252873e-01
6.919999999999999929e+00 5.873652540254318266e-01
6.940000000000000391e+00 5.845556628324394266e-01
6.959999999999999964e+00 5.817616138943251247e-01
6.980000000000000426e+00 5.789830145859903299e-01
7.000000000000000000e+00 5.762198012694471627e-01
7.020000000000000462e+00 5.734718813411262550e-01
7.040000000000000036e+00 5.707391917800646031e-01
7.060000000000000497e+00 5.680216400214136430e-01
7.080000000000000071e+00 5.653191636844885348e-01
7.100000000000000533e+00 5.626316702592808472e-01
7.120000000000000107e+00 5.599590980276484276e-01
7.140000000000000568e+00 5.573013545495132393e-01
7.160000000000000142e+00 5.546583787905849938e-01
7.179999999999999716e+00 5.520300783947964529e-01
7.200000000000000178e+00 5.494163930320821176e-01
7.219999999999999751e+00 5.468172304435182651e-01
7.240000000000000213e+00 5.442325310227449364e-01
7.259999999999999787e+00 5.416622026201597384e-01
7.280000000000000249e+00 5.391061863717252489e-01
7.299999999999999822e+00 5.365643902484420469e-01
7.320000000000000284e+00 5.340367561463813528e-01
7.339999999999999858e+00 5.315231921675501736e-01
7.360000000000000320e+00 5.290236409851070132e-01
7.379999999999999893e+00 5.265380108416277682e-01
7.400000000000000355e+00 5.240662452035595997e-01
7.419999999999999929e+00 5.216082524627811967e-01
7.440000000000000391e+00 5.191639768944968925e-01
7.459999999999999964e+00 5.167333270478344787e-01
7.480000000000000426e+00 5.143162480214960031e-01
7.500000000000000000e+00 5.119126485290390605e-01
7.520000000000000462e+00 5.095224745067101768e-01
7.540000000000000036e+00 5.071456348389581370e-01
7.560000000000000497e+00 5.047820763129573507e-01
7.580000000000000071e+00 5.024317079897652194e-01
7.600000000000000533e+00 5.000944775202270653e-01
7.620000000000000107e+00 4.977702941470745768e-01
7.640000000000000568e+00 4.954591063969567277e-01
7.660000000000000142e+00 4.931608236986430027e-01
7.679999999999999716e+00 4.908753954661265739e-01
7.700000000000000178e+00 4.886027313179721610e-01
7.719999999999999751e+00 4.863427815664799203e-01
7.740000000000000213e+00 4.840954560231328641e-01
7.759999999999999787e+00 4.818607059089656253e-01
7.780000000000000249e+00 4.796384412309178669e-01
7.799999999999999822e+00 4.774286141286597784e-01
7.820000000000000284e+00 4.752311348065393348e-01
7.839999999999999858e+00 4.730459563322598204e-01
7.860000000000000320e+00 4.708729891089967756e-01
7.879999999999999893e+00 4.687121871414045571e-01
