# Electrodo circular de radio 6 mm y espesor 710.0 um.
# Volumen de simulacion (convencion z,y,x):
# N: 1024 x 1024 x 1024 | voxelSize:  0.02mm x 0.02mm x 0.02mm | FOV:  20.48mm x 20.48mm x 20.48mm
# 
# z [mm]		 delta[ppm]
0.000000000000000000e+00 2.459942856461679650e+00
2.000000000000000042e-02 2.457039050334645758e+00
4.000000000000000083e-02 2.454048068923043502e+00
5.999999999999999778e-02 2.450970466112061708e+00
8.000000000000000167e-02 2.447806847421866827e+00
1.000000000000000056e-01 2.444557841954054123e+00
1.199999999999999956e-01 2.441224086495112022e+00
1.400000000000000133e-01 2.437806234939324135e+00
1.600000000000000033e-01 2.434304952338737227e+00
1.799999999999999933e-01 2.430720919666104596e+00
2.000000000000000111e-01 2.427054829001561220e+00
2.200000000000000011e-01 2.423307387788318668e+00
2.399999999999999911e-01 2.419479313871278237e+00
2.600000000000000089e-01 2.415571339946093854e+00
2.800000000000000266e-01 2.411584208326778889e+00
2.999999999999999889e-01 2.407518675613894654e+00
3.200000000000000067e-01 2.403375507266980016e+00
3.400000000000000244e-01 2.399155482484250257e+00
3.599999999999999867e-01 2.394859388523696619e+00
3.800000000000000044e-01 2.390488025795597604e+00
4.000000000000000222e-01 2.386042201990155487e+00
4.199999999999999845e-01 2.381522737374849985e+00
4.400000000000000022e-01 2.376930458690907244e+00
4.600000000000000200e-01 2.372266204656160227e+00
4.799999999999999822e-01 2.367530819670875530e+00
5.000000000000000000e-01 2.362725159520301599e+00
5.200000000000000178e-01 2.357850084864957729e+00
5.400000000000000355e-01 2.352906467142392266e+00
5.600000000000000533e-01 2.347895181871766823e+00
5.799999999999999600e-01 2.342817114750181506e+00
5.999999999999999778e-01 2.337673154754846827e+00
6.199999999999999956e-01 2.332464200432625034e+00
6.400000000000000133e-01 2.327191152822948084e+00
6.600000000000000311e-01 2.321854921936398863e+00
6.800000000000000488e-01 2.316456419487169516e+00
7.000000000000000666e-01 2.310996565558635307e+00
7.199999999999999734e-01 2.305476281164123176e+00
7.399999999999999911e-01 2.299896495095496984e+00
7.600000000000000089e-01 2.294258136304766715e+00
7.800000000000000266e-01 2.288562140933099620e+00
8.000000000000000444e-01 2.282809444529073861e+00
8.200000000000000622e-01 2.277000989254103214e+00
8.399999999999999689e-01 2.271137715932552759e+00
8.599999999999999867e-01 2.265220571430545338e+00
8.800000000000000044e-01 2.259250500551638563e+00
9.000000000000000222e-01 2.253228453584853241e+00
9.200000000000000400e-01 2.247155378043146801e+00
9.400000000000000577e-01 2.241032226377230430e+00
9.599999999999999645e-01 2.234859947568961225e+00
9.799999999999999822e-01 2.228639495006648819e+00
1.000000000000000000e+00 2.222371817932121907e+00
1.020000000000000018e+00 2.216057869473677666e+00
1.040000000000000036e+00 2.209698597957832966e+00
1.060000000000000053e+00 2.203294955095408625e+00
1.080000000000000071e+00 2.196847887157880486e+00
1.100000000000000089e+00 2.190358343312413414e+00
1.120000000000000107e+00 2.183827266672964562e+00
1.140000000000000124e+00 2.177255602779516686e+00
1.159999999999999920e+00 2.170644290524800901e+00
1.179999999999999938e+00 2.163994270773200945e+00
1.199999999999999956e+00 2.157306477172598935e+00
1.219999999999999973e+00 2.150581844907965223e+00
1.239999999999999991e+00 2.143821301399928103e+00
1.260000000000000009e+00 2.137025775188244658e+00
1.280000000000000027e+00 2.130196186526073454e+00
1.300000000000000044e+00 2.123333456388082130e+00
1.320000000000000062e+00 2.116438496962686155e+00
1.340000000000000080e+00 2.109512220779679925e+00
1.360000000000000098e+00 2.102555531109015607e+00
1.380000000000000115e+00 2.095569331202493224e+00
1.400000000000000133e+00 2.088554514601864032e+00
1.419999999999999929e+00 2.081511974489178574e+00
1.439999999999999947e+00 2.074442593912497745e+00
1.459999999999999964e+00 2.067347255239199821e+00
1.479999999999999982e+00 2.060226830302531731e+00
1.500000000000000000e+00 2.053082189952218695e+00
1.520000000000000018e+00 2.045914194129904828e+00
1.540000000000000036e+00 2.038723701511131470e+00
1.560000000000000053e+00 2.031511559513297538e+00
1.580000000000000071e+00 2.024278614023124145e+00
1.600000000000000089e+00 2.017025699344974665e+00
1.620000000000000107e+00 2.009753648007686078e+00
1.640000000000000124e+00 2.002463280657223788e+00
1.660000000000000142e+00 1.995155415936740839e+00
1.679999999999999938e+00 1.987830860331305294e+00
1.699999999999999956e+00 1.980490418114862816e+00
1.719999999999999973e+00 1.973134881151306530e+00
1.739999999999999991e+00 1.965765038902011375e+00
1.760000000000000009e+00 1.958381668190890768e+00
1.780000000000000027e+00 1.950985543265957078e+00
1.800000000000000044e+00 1.943577425532945879e+00
1.820000000000000062e+00 1.936158073664383750e+00
1.840000000000000080e+00 1.928728233309333406e+00
1.860000000000000098e+00 1.921288647243266201e+00
1.880000000000000115e+00 1.913840045058762707e+00
1.900000000000000133e+00 1.906383153349493265e+00
1.919999999999999929e+00 1.898918685389370697e+00
1.939999999999999947e+00 1.891447351343799932e+00
1.959999999999999964e+00 1.883969847942359221e+00
1.979999999999999982e+00 1.876486868710413036e+00
2.000000000000000000e+00 1.868999093642849330e+00
2.020000000000000018e+00 1.861507199449059513e+00
2.040000000000000036e+00 1.854011849232997333e+00
2.060000000000000053e+00 1.846513702744516205e+00
2.080000000000000071e+00 1.839013406073246149e+00
2.100000000000000089e+00 1.831511601899151520e+00
2.120000000000000107e+00 1.824008919205725610e+00
2.140000000000000124e+00 1.816505983522607837e+00
2.160000000000000142e+00 1.809003406665610214e+00
2.180000000000000160e+00 1.801501796964120938e+00
2.200000000000000178e+00 1.794001749033671933e+00
2.220000000000000195e+00 1.786503853980841994e+00
2.240000000000000213e+00 1.779008689215898942e+00
2.260000000000000231e+00 1.771516828627831108e+00
2.280000000000000249e+00 1.764028832442940731e+00
2.300000000000000266e+00 1.756545257362607027e+00
2.319999999999999840e+00 1.749066646475407216e+00
2.339999999999999858e+00 1.741593539350132946e+00
2.359999999999999876e+00 1.734126462007499869e+00
2.379999999999999893e+00 1.726665936960911418e+00
2.399999999999999911e+00 1.719212473255371743e+00
2.419999999999999929e+00 1.711766576448433330e+00
2.439999999999999947e+00 1.704328738722536540e+00
2.459999999999999964e+00 1.696899448798540933e+00
2.479999999999999982e+00 1.689479182129167478e+00
2.500000000000000000e+00 1.682068410737453945e+00
2.520000000000000018e+00 1.674667593497677132e+00
2.540000000000000036e+00 1.667277185891069546e+00
2.560000000000000053e+00 1.659897630381934830e+00
2.580000000000000071e+00 1.652529366082886142e+00
2.600000000000000089e+00 1.645172819232691319e+00
2.620000000000000107e+00 1.637828412763292718e+00
2.640000000000000124e+00 1.630496556887150117e+00
2.660000000000000142e+00 1.623177658558232261e+00
2.680000000000000160e+00 1.615872112175553044e+00
2.700000000000000178e+00 1.608580308930307012e+00
2.720000000000000195e+00 1.601302627633421460e+00
2.740000000000000213e+00 1.594039443940975742e+00
2.760000000000000231e+00 1.586791121312594255e+00
2.780000000000000249e+00 1.579558020107270311e+00
2.800000000000000266e+00 1.572340488680467718e+00
2.819999999999999840e+00 1.565138872342444643e+00
2.839999999999999858e+00 1.557953504601006900e+00
2.859999999999999876e+00 1.550784715974390826e+00
2.879999999999999893e+00 1.543632825387619478e+00
2.899999999999999911e+00 1.536498148831960453e+00
2.919999999999999929e+00 1.529380990921975547e+00
2.939999999999999947e+00 1.522281653393538381e+00
2.959999999999999964e+00 1.515200426829584890e+00
2.979999999999999982e+00 1.508137598988692485e+00
3.000000000000000000e+00 1.501093446706693424e+00
3.020000000000000018e+00 1.494068244047789928e+00
3.040000000000000036e+00 1.487062254390088212e+00
3.060000000000000053e+00 1.480075738391173124e+00
3.080000000000000071e+00 1.473108946264878316e+00
3.100000000000000089e+00 1.466162125553226669e+00
3.120000000000000107e+00 1.459235513602547440e+00
3.140000000000000124e+00 1.452329345133690053e+00
3.160000000000000142e+00 1.445443844924885202e+00
3.180000000000000160e+00 1.438579235172093851e+00
3.200000000000000178e+00 1.431735728386792861e+00
3.220000000000000195e+00 1.424913534538337911e+00
3.240000000000000213e+00 1.418112854174129467e+00
3.260000000000000231e+00 1.411333885335835037e+00
3.280000000000000249e+00 1.404576816910191539e+00
3.300000000000000266e+00 1.397841835310885239e+00
3.320000000000000284e+00 1.391129118067573112e+00
3.339999999999999858e+00 1.384438840265223458e+00
3.359999999999999876e+00 1.377771168379637867e+00
3.379999999999999893e+00 1.371126266466043964e+00
3.399999999999999911e+00 1.364504290248790941e+00
3.419999999999999929e+00 1.357905393050939491e+00
3.439999999999999947e+00 1.351329720146464242e+00
3.459999999999999964e+00 1.344777414422631434e+00
3.479999999999999982e+00 1.338248611002420985e+00
3.500000000000000000e+00 1.331743442631417640e+00
3.520000000000000018e+00 1.325262034578859049e+00
3.540000000000000036e+00 1.318804509740770126e+00
3.560000000000000053e+00 1.312370983827432669e+00
3.580000000000000071e+00 1.305961570174448028e+00
3.600000000000000089e+00 1.299576375225107272e+00
3.620000000000000107e+00 1.293215503041062808e+00
3.640000000000000124e+00 1.286879051087449044e+00
3.660000000000000142e+00 1.280567114434866927e+00
3.680000000000000160e+00 1.274279781855741200e+00
3.700000000000000178e+00 1.268017139709246788e+00
3.720000000000000195e+00 1.261779268356874484e+00
3.740000000000000213e+00 1.255566245721949858e+00
3.760000000000000231e+00 1.249378144032913251e+00
3.780000000000000249e+00 1.243215033049069662e+00
3.800000000000000266e+00 1.237076977139593748e+00
3.820000000000000284e+00 1.230964038167119634e+00
3.839999999999999858e+00 1.224876272911058050e+00
3.859999999999999876e+00 1.218813735600608128e+00
3.879999999999999893e+00 1.212776475690457545e+00
3.899999999999999911e+00 1.206764540034798161e+00
3.919999999999999929e+00 1.200777971024038715e+00
3.939999999999999947e+00 1.194816808391376606e+00
3.959999999999999964e+00 1.188881087718650642e+00
3.979999999999999982e+00 1.182970841867020395e+00
4.000000000000000000e+00 1.177086099860637392e+00
4.020000000000000462e+00 1.171226887932936833e+00
4.040000000000000036e+00 1.165393228796309577e+00
4.060000000000000497e+00 1.159585142295554760e+00
4.080000000000000071e+00 1.153802645072233402e+00
4.099999999999999645e+00 1.148045750816780952e+00
4.120000000000000107e+00 1.142314470335783483e+00
4.139999999999999680e+00 1.136608811394224094e+00
4.160000000000000142e+00 1.130928779194452449e+00
4.179999999999999716e+00 1.125274375800006776e+00
4.200000000000000178e+00 1.119645601034566118e+00
4.219999999999999751e+00 1.114042451478808093e+00
4.240000000000000213e+00 1.108464921798135716e+00
4.259999999999999787e+00 1.102913003303987782e+00
4.280000000000000249e+00 1.097386685718674704e+00
4.299999999999999822e+00 1.091885955292568378e+00
4.320000000000000284e+00 1.086410797014892404e+00
4.339999999999999858e+00 1.080961192278134586e+00
4.360000000000000320e+00 1.075537121543237884e+00
4.379999999999999893e+00 1.070138561542592237e+00
4.400000000000000355e+00 1.064765488408476957e+00
4.419999999999999929e+00 1.059417874406012094e+00
4.440000000000000391e+00 1.054095691533283752e+00
4.459999999999999964e+00 1.048798907775592815e+00
4.480000000000000426e+00 1.043527491186209133e+00
4.500000000000000000e+00 1.038281405653163292e+00
4.520000000000000462e+00 1.033060615469176158e+00
4.540000000000000036e+00 1.027865080602303749e+00
4.560000000000000497e+00 1.022694761763968341e+00
4.580000000000000071e+00 1.017549615174709654e+00
4.600000000000000533e+00 1.012429598138915088e+00
4.620000000000000107e+00 1.007334663296902022e+00
4.639999999999999680e+00 1.002264764715366852e+00
4.660000000000000142e+00 9.972198516169982208e-01
4.679999999999999716e+00 9.921998749952752883e-01
4.700000000000000178e+00 9.872047808127997204e-01
4.719999999999999751e+00 9.822345171495249216e-01
4.740000000000000213e+00 9.772890268609312203e-01
4.759999999999999787e+00 9.723682552683957647e-01
4.780000000000000249e+00 9.674721422683446592e-01
4.799999999999999822e+00 9.626006305738831204e-01
4.820000000000000284e+00 9.577536572660153569e-01
4.839999999999999858e+00 9.529311625952946452e-01
4.860000000000000320e+00 9.481330809661957515e-01
4.879999999999999893e+00 9.433593503079441556e-01
4.900000000000000355e+00 9.386099024830846238e-01
4.919999999999999929e+00 9.338846732363303982e-01
4.940000000000000391e+00 9.291835920183187936e-01
4.959999999999999964e+00 9.245065925217265113e-01
4.980000000000000426e+00 9.198536019111871465e-01
5.000000000000000000e+00 9.152245519555683995e-01
5.020000000000000462e+00 9.106193676549978466e-01
5.040000000000000036e+00 9.060379789786040527e-01
5.060000000000000497e+00 9.014803088795514396e-01
5.080000000000000071e+00 8.969462856472184553e-01
5.100000000000000533e+00 8.924358303011231675e-01
5.120000000000000107e+00 8.879488695669053300e-01
5.139999999999999680e+00 8.834853226399645987e-01
5.160000000000000142e+00 8.790451147943104671e-01
5.179999999999999716e+00 8.746281635067106874e-01
5.200000000000000178e+00 8.702343927078480812e-01
5.219999999999999751e+00 8.658637182577350044e-01
5.240000000000000213e+00 8.615160628483121696e-01
5.259999999999999787e+00 8.571913408208422513e-01
5.280000000000000249e+00 8.528894737294759887e-01
5.299999999999999822e+00 8.486103744913088276e-01
5.320000000000000284e+00 8.443539636201121690e-01
5.339999999999999858e+00 8.401201526997018609e-01
5.360000000000000320e+00 8.359088612974422405e-01
5.379999999999999893e+00 8.317199997514906906e-01
5.400000000000000355e+00 8.275534867734047895e-01
5.419999999999999929e+00 8.234092315398057194e-01
5.440000000000000391e+00 8.192871519937704461e-01
5.459999999999999964e+00 8.151871562314187969e-01
5.480000000000000426e+00 8.111091615114859321e-01
5.500000000000000000e+00 8.070530749272869508e-01
5.520000000000000462e+00 8.030188131342563818e-01
5.540000000000000036e+00 7.990062822976770063e-01
5.560000000000000497e+00 7.950153985477120822e-01
5.580000000000000071e+00 7.910460671932326715e-01
5.600000000000000533e+00 7.870982039142087050e-01
5.620000000000000107e+00 7.831717132319695462e-01
5.639999999999999680e+00 7.792665104485408945e-01
5.660000000000000142e+00 7.753824993635710650e-01
5.679999999999999716e+00 7.715195949706211698e-01
5.700000000000000178e+00 7.676777004109285318e-01
5.719999999999999751e+00 7.638567304363818034e-01
5.740000000000000213e+00 7.600565875902560720e-01
5.759999999999999787e+00 7.562771864469498562e-01
5.780000000000000249e+00 7.525184290097719497e-01
5.799999999999999822e+00 7.487802297372934124e-01
5.820000000000000284e+00 7.450624901481904816e-01
5.839999999999999858e+00 7.413651246444096232e-01
5.860000000000000320e+00 7.376880343130275408e-01
5.879999999999999893e+00 7.340311335562033079e-01
5.900000000000000355e+00 7.303943230799305741e-01
5.919999999999999929e+00 7.267775173411071821e-01
5.940000000000000391e+00 7.231806167130144791e-01
5.959999999999999964e+00 7.196035357595957915e-01
5.980000000000000426e+00 7.160461745674053802e-01
6.000000000000000000e+00 7.125084478575770541e-01
6.020000000000000462e+00 7.089902554739273555e-01
6.040000000000000036e+00 7.054915123428300294e-01
6.060000000000000497e+00 7.020121181071133920e-01
6.080000000000000071e+00 6.985519879444314073e-01
6.100000000000000533e+00 6.951110213364828372e-01
6.120000000000000107e+00 6.916891337562910413e-01
6.140000000000000568e+00 6.882862245621972352e-01
6.160000000000000142e+00 6.849022095647766539e-01
6.179999999999999716e+00 6.815369880350333753e-01
6.200000000000000178e+00 6.781904761614711008e-01
6.219999999999999751e+00 6.748625731617826640e-01
6.240000000000000213e+00 6.715531956410031311e-01
6.259999999999999787e+00 6.682622427959409306e-01
6.280000000000000249e+00 6.649896316850639755e-01
6.299999999999999822e+00 6.617352615148334172e-01
6.320000000000000284e+00 6.584990498324109209e-01
6.339999999999999858e+00 6.552808958829617891e-01
6.360000000000000320e+00 6.520807177360087303e-01
6.379999999999999893e+00 6.488984147027133664e-01
6.400000000000000355e+00 6.457339054071035145e-01
6.419999999999999929e+00 6.425870892522287381e-01
6.440000000000000391e+00 6.394578854472892093e-01
6.459999999999999964e+00 6.363461935114791412e-01
6.480000000000000426e+00 6.332519332684098945e-01
6.500000000000000000e+00 6.301750043763828524e-01
6.520000000000000462e+00 6.271153273012947116e-01
6.540000000000000036e+00 6.240728018619676742e-01
6.560000000000000497e+00 6.210473491931318701e-01
6.580000000000000071e+00 6.180388692943610263e-01
6.600000000000000533e+00 6.150472839945030357e-01
6.620000000000000107e+00 6.120724934926540239e-01
6.640000000000000568e+00 6.091144203358328513e-01
6.660000000000000142e+00 6.061729649403456710e-01
6.679999999999999716e+00 6.032480505942535709e-01
6.700000000000000178e+00 6.003395779473905680e-01
6.719999999999999751e+00 5.974474710506079145e-01
6.740000000000000213e+00 5.945716308025804642e-01
6.759999999999999787e+00 5.917119820375997818e-01
6.780000000000000249e+00 5.888684259172221047e-01
6.799999999999999822e+00 5.860408880787837393e-01
6.820000000000000284e+00 5.832292699598315977e-01
6.839999999999999858e+00 5.804334980193477378e-01
6.860000000000000320e+00 5.776534739827871023e-01
6.879999999999999893e+00 5.748891251484081755e-01
6.900000000000000355e+00 5.721403535406449636e-01
6.919999999999999929e+00 5.694070873137383471e-01
6.940000000000000391e+00 5.666892288010515477e-01
6.959999999999999964e+00 5.639867070286113115e-01
6.980000000000000426e+00 5.612994246478925087e-01
7.000000000000000000e+00 5.586273115716703375e-01
7.020000000000000462e+00 5.559702707776512653e-01
7.040000000000000036e+00 5.533282330794999648e-01
7.060000000000000497e+00 5.507011017885768966e-01
7.080000000000000071e+00 5.480888086327857511e-01
7.100000000000000533e+00 5.454912572635793877e-01
7.120000000000000107e+00 5.429083803357022120e-01
7.140000000000000568e+00 5.403400818464960675e-01
7.160000000000000142e+00 5.377862953894300135e-01
7.179999999999999716e+00 5.352469253126045379e-01
7.200000000000000178e+00 5.327219061594014038e-01
7.219999999999999751e+00 5.302111426329817467e-01
7.240000000000000213e+00 5.277145702371711655e-01
7.259999999999999787e+00 5.252320940336163702e-01
7.280000000000000249e+00 5.227636504964878750e-01
7.299999999999999822e+00 5.203091450488225300e-01
7.320000000000000284e+00 5.178685151444361034e-01
7.339999999999999858e+00 5.154416665698530187e-01
7.360000000000000320e+00 5.130285377672544334e-01
7.379999999999999893e+00 5.106290348882798202e-01
7.400000000000000355e+00 5.082430973716450806e-01
7.419999999999999929e+00 5.058706317349659365e-01
7.440000000000000391e+00 5.035115784211485757e-01
7.459999999999999964e+00 5.011658443142248398e-01
7.480000000000000426e+00 4.988333708684410395e-01
7.500000000000000000e+00 4.965140653339702448e-01
7.520000000000000462e+00 4.942078701830688314e-01
7.540000000000000036e+00 4.919146930314202693e-01
7.560000000000000497e+00 4.896344773755091362e-01
7.580000000000000071e+00 4.873671311951945917e-01
7.600000000000000533e+00 4.851125990169786184e-01
7.620000000000000107e+00 4.828707891832665355e-01
7.640000000000000568e+00 4.806416472559590924e-01
7.660000000000000142e+00 4.784250819377078301e-01
7.679999999999999716e+00 4.762210398308056036e-01
7.700000000000000178e+00 4.740294299955941648e-01
7.719999999999999751e+00 4.718502000793703410e-01
7.740000000000000213e+00 4.696832594969967967e-01
7.759999999999999787e+00 4.675285569450491896e-01
7.780000000000000249e+00 4.653860021894992149e-01
7.799999999999999822e+00 4.632555449801387115e-01
7.820000000000000284e+00 4.611370954300634262e-01
7.839999999999999858e+00 4.590306043459033702e-01
7.860000000000000320e+00 4.569359821836977420e-01
7.879999999999999893e+00 4.548531808102401208e-01
