# Electrodo circular de radio 6 mm y espesor 710.0 um.
# Volumen de simulacion (convencion z,y,x):
# N: 1024 x 1024 x 1024 | voxelSize:  0.02mm x 0.02mm x 0.02mm | FOV:  20.48mm x 20.48mm x 20.48mm
# 
# z [mm]		 delta[ppm]
0.000000000000000000e+00 3.594043305077624595e+00
2.000000000000000042e-02 3.577853095578936049e+00
4.000000000000000083e-02 3.561300238977556543e+00
5.999999999999999778e-02 3.544397752153997327e+00
8.000000000000000167e-02 3.527158701268546803e+00
1.000000000000000056e-01 3.509596246558204236e+00
1.199999999999999956e-01 3.491723594409019693e+00
1.400000000000000133e-01 3.473553990762434651e+00
1.600000000000000033e-01 3.455100684684357049e+00
1.799999999999999933e-01 3.436376923010084905e+00
2.000000000000000111e-01 3.417395915962437414e+00
2.200000000000000011e-01 3.398170832177721756e+00
2.399999999999999911e-01 3.378714766322627572e+00
2.600000000000000089e-01 3.359040734904524594e+00
2.800000000000000266e-01 3.339161645367980658e+00
2.999999999999999889e-01 3.319090293263920355e+00
3.200000000000000067e-01 3.298839332689147863e+00
3.400000000000000244e-01 3.278421275129872914e+00
3.599999999999999867e-01 3.257848461192178746e+00
3.800000000000000044e-01 3.237133061323132388e+00
4.000000000000000222e-01 3.216287048818341265e+00
4.199999999999999845e-01 3.195322202540920031e+00
4.400000000000000022e-01 3.174250081205504337e+00
4.600000000000000200e-01 3.153082028161058314e+00
4.799999999999999822e-01 3.131829146930358743e+00
5.000000000000000000e-01 3.110502308079135858e+00
5.200000000000000178e-01 3.089112125985897794e+00
5.400000000000000355e-01 3.067668967784226375e+00
5.600000000000000533e-01 3.046182931309528108e+00
5.799999999999999600e-01 3.024663856072222323e+00
5.999999999999999778e-01 3.003121302320825414e+00
6.199999999999999956e-01 2.981564563978742477e+00
6.400000000000000133e-01 2.960002648738594200e+00
6.600000000000000311e-01 2.938444292875700636e+00
6.800000000000000488e-01 2.916897942283577461e+00
7.000000000000000666e-01 2.895371769060940181e+00
7.199999999999999734e-01 2.873873653380659032e+00
7.399999999999999911e-01 2.852411201735594481e+00
7.600000000000000089e-01 2.830991729532416290e+00
7.800000000000000266e-01 2.809622280873001809e+00
8.000000000000000444e-01 2.788309611754220096e+00
8.200000000000000622e-01 2.767060211256919366e+00
8.399999999999999689e-01 2.745880285236381724e+00
8.599999999999999867e-01 2.724775778788862457e+00
8.800000000000000044e-01 2.703752360313335323e+00
9.000000000000000222e-01 2.682815445126491838e+00
9.200000000000000400e-01 2.661970179783831991e+00
9.400000000000000577e-01 2.641221466716794364e+00
9.599999999999999645e-01 2.620573948702162870e+00
9.799999999999999822e-01 2.600032034399998970e+00
1.000000000000000000e+00 2.579599882870376337e+00
1.020000000000000018e+00 2.559281429896963722e+00
1.040000000000000036e+00 2.539080372454337375e+00
1.060000000000000053e+00 2.519000195709589107e+00
1.080000000000000071e+00 2.499044157354982865e+00
1.100000000000000089e+00 2.479215315187996094e+00
1.120000000000000107e+00 2.459516511230233071e+00
1.140000000000000124e+00 2.439950399795043801e+00
1.159999999999999920e+00 2.420519431325432791e+00
1.179999999999999938e+00 2.401225880867116746e+00
1.199999999999999956e+00 2.382071831565043318e+00
1.219999999999999973e+00 2.363059203468595992e+00
1.239999999999999991e+00 2.344189736637649624e+00
1.260000000000000009e+00 2.325465020215119694e+00
1.280000000000000027e+00 2.306886475100178302e+00
1.300000000000000044e+00 2.288455383231602358e+00
1.320000000000000062e+00 2.270172869795993087e+00
1.340000000000000080e+00 2.252039932673023603e+00
1.360000000000000098e+00 2.234057424152466886e+00
1.380000000000000115e+00 2.216226080499667628e+00
1.400000000000000133e+00 2.198546503163966825e+00
1.419999999999999929e+00 2.181019188429220712e+00
1.439999999999999947e+00 2.163644508101182140e+00
1.459999999999999964e+00 2.146422739213777131e+00
1.479999999999999982e+00 2.129354044190313822e+00
1.500000000000000000e+00 2.112438500581496292e+00
1.520000000000000018e+00 2.095676080699074628e+00
1.540000000000000036e+00 2.079066681366249281e+00
1.560000000000000053e+00 2.062610103028222230e+00
1.580000000000000071e+00 2.046306079499604635e+00
1.600000000000000089e+00 2.030154256559059345e+00
1.620000000000000107e+00 2.014154221681777379e+00
1.640000000000000124e+00 1.998305482129874244e+00
1.660000000000000142e+00 1.982607494660924452e+00
1.679999999999999938e+00 1.967059643127462287e+00
1.699999999999999956e+00 1.951661268154994744e+00
1.719999999999999973e+00 1.936411644267352239e+00
1.739999999999999991e+00 1.921310009529482832e+00
1.760000000000000009e+00 1.906355542216329857e+00
1.780000000000000027e+00 1.891547390417299024e+00
1.800000000000000044e+00 1.876884648268727585e+00
1.820000000000000062e+00 1.862366385518110956e+00
1.840000000000000080e+00 1.847991623340516254e+00
1.860000000000000098e+00 1.833759363861516833e+00
1.880000000000000115e+00 1.819668565579584341e+00
1.900000000000000133e+00 1.805718172847298408e+00
1.919999999999999929e+00 1.791907090921513124e+00
1.939999999999999947e+00 1.778234215402821672e+00
1.959999999999999964e+00 1.764698406936395125e+00
1.979999999999999982e+00 1.751298520609832599e+00
2.000000000000000000e+00 1.738033380327032251e+00
2.020000000000000018e+00 1.724901808164592598e+00
2.040000000000000036e+00 1.711902598441765511e+00
2.060000000000000053e+00 1.699034547035423337e+00
2.080000000000000071e+00 1.686296425168362978e+00
2.100000000000000089e+00 1.673687008682676503e+00
2.120000000000000107e+00 1.661205051569051072e+00
2.140000000000000124e+00 1.648849315198039456e+00
2.160000000000000142e+00 1.636618541612088196e+00
2.180000000000000160e+00 1.624511482713850041e+00
2.200000000000000178e+00 1.612526873342869482e+00
2.220000000000000195e+00 1.600663460419632367e+00
2.240000000000000213e+00 1.588919975827847164e+00
2.260000000000000231e+00 1.577295165512497821e+00
2.280000000000000249e+00 1.565787762188699972e+00
2.300000000000000266e+00 1.554396514391545692e+00
2.319999999999999840e+00 1.543120159031509120e+00
2.339999999999999858e+00 1.531957450393378606e+00
2.359999999999999876e+00 1.520907132558195096e+00
2.379999999999999893e+00 1.509967968348067791e+00
2.399999999999999911e+00 1.499138711633592580e+00
2.419999999999999929e+00 1.488418136220909904e+00
2.439999999999999947e+00 1.477805008063513226e+00
2.459999999999999964e+00 1.467298114087383087e+00
2.479999999999999982e+00 1.456896234325150363e+00
2.500000000000000000e+00 1.446598170674715522e+00
2.520000000000000018e+00 1.436402718973641246e+00
2.540000000000000036e+00 1.426308697686222482e+00
2.560000000000000053e+00 1.416314919935078631e+00
2.580000000000000071e+00 1.406420222111236740e+00
2.600000000000000089e+00 1.396623435879806197e+00
2.620000000000000107e+00 1.386923416707263934e+00
2.640000000000000124e+00 1.377319015857237927e+00
2.660000000000000142e+00 1.367809108828793363e+00
2.680000000000000160e+00 1.358392567358331249e+00
2.700000000000000178e+00 1.349068287762321239e+00
2.720000000000000195e+00 1.339835162960502535e+00
2.740000000000000213e+00 1.330692110716219068e+00
2.760000000000000231e+00 1.321638045696065689e+00
2.780000000000000249e+00 1.312671907600690302e+00
2.800000000000000266e+00 1.303792633275290491e+00
2.819999999999999840e+00 1.294999184723468089e+00
2.839999999999999858e+00 1.286290521282972721e+00
2.859999999999999876e+00 1.277665627514970703e+00
2.879999999999999893e+00 1.269123485458716560e+00
2.899999999999999911e+00 1.260663102388387191e+00
2.919999999999999929e+00 1.252283483160390398e+00
2.939999999999999947e+00 1.243983657829685230e+00
2.959999999999999964e+00 1.235762654102793290e+00
2.979999999999999982e+00 1.227619524805400486e+00
3.000000000000000000e+00 1.219553320454125345e+00
3.020000000000000018e+00 1.211563116567043297e+00
3.040000000000000036e+00 1.203647986366684020e+00
3.060000000000000053e+00 1.195807027924962407e+00
3.080000000000000071e+00 1.188039337009945351e+00
3.100000000000000089e+00 1.180344034056553193e+00
3.120000000000000107e+00 1.172720237169054824e+00
3.140000000000000124e+00 1.165167088908835913e+00
3.160000000000000142e+00 1.157683729464628275e+00
3.180000000000000160e+00 1.150269323248549469e+00
3.200000000000000178e+00 1.142923032245549031e+00
3.220000000000000195e+00 1.135644042408882060e+00
3.240000000000000213e+00 1.128431537200304424e+00
3.260000000000000231e+00 1.121284723776070358e+00
3.280000000000000249e+00 1.114202806728959105e+00
3.300000000000000266e+00 1.107185014055840799e+00
3.320000000000000284e+00 1.100230571112655209e+00
3.339999999999999858e+00 1.093338726354594170e+00
3.359999999999999876e+00 1.086508725514701901e+00
3.379999999999999893e+00 1.079739837107684064e+00
3.399999999999999911e+00 1.073031326842884381e+00
3.419999999999999929e+00 1.066382482882730409e+00
3.439999999999999947e+00 1.059792590500402865e+00
3.459999999999999964e+00 1.053260957083947513e+00
3.479999999999999982e+00 1.046786887049019565e+00
3.500000000000000000e+00 1.040369706579701070e+00
3.520000000000000018e+00 1.034008738806308170e+00
3.540000000000000036e+00 1.027703328273976924e+00
3.560000000000000053e+00 1.021452816395595153e+00
3.580000000000000071e+00 1.015256565639240494e+00
3.600000000000000089e+00 1.009113935265921969e+00
3.620000000000000107e+00 1.003024305227005364e+00
3.640000000000000124e+00 9.969870521965058519e-01
3.660000000000000142e+00 9.910015731696940611e-01
3.680000000000000160e+00 9.850672617993150304e-01
3.700000000000000178e+00 9.791835316865802330e-01
3.720000000000000195e+00 9.733497930308148138e-01
3.740000000000000213e+00 9.675654756041135451e-01
3.760000000000000231e+00 9.618300057234985267e-01
3.780000000000000249e+00 9.561428289005889924e-01
3.800000000000000266e+00 9.505033871454822147e-01
3.820000000000000284e+00 9.449111412828242740e-01
3.839999999999999858e+00 9.393655485962728591e-01
3.859999999999999876e+00 9.338660848024293859e-01
3.879999999999999893e+00 9.284122220448229879e-01
3.899999999999999911e+00 9.230034505172536319e-01
3.919999999999999929e+00 9.176392568158919794e-01
3.939999999999999947e+00 9.123191452036416571e-01
3.959999999999999964e+00 9.070426163290649102e-01
3.979999999999999982e+00 9.018091881234228113e-01
4.000000000000000000e+00 8.966183748948229892e-01
4.020000000000000462e+00 8.914697078496932603e-01
4.040000000000000036e+00 8.863627145705919030e-01
4.060000000000000497e+00 8.812969391539740016e-01
4.080000000000000071e+00 8.762719220798093067e-01
4.099999999999999645e+00 8.712872199575607546e-01
4.120000000000000107e+00 8.663423857958427732e-01
4.139999999999999680e+00 8.614369883485892831e-01
4.160000000000000142e+00 8.565705927927287355e-01
4.179999999999999716e+00 8.517427796666067197e-01
4.200000000000000178e+00 8.469531259636756682e-01
4.219999999999999751e+00 8.422012236553584330e-01
4.240000000000000213e+00 8.374866612084829187e-01
4.259999999999999787e+00 8.328090416848188404e-01
4.280000000000000249e+00 8.281679646900840241e-01
4.299999999999999822e+00 8.235630440424709375e-01
4.320000000000000284e+00 8.189938901607664024e-01
4.339999999999999858e+00 8.144601272942729731e-01
4.360000000000000320e+00 8.099613763576667402e-01
4.379999999999999893e+00 8.054972717148124461e-01
4.400000000000000355e+00 8.010674444676838535e-01
4.419999999999999929e+00 7.966715387866553089e-01
4.440000000000000391e+00 7.923091956609222830e-01
4.459999999999999964e+00 7.879800687679180404e-01
4.480000000000000426e+00 7.836838086924151625e-01
4.500000000000000000e+00 7.794200783277770439e-01
4.520000000000000462e+00 7.751885375710041437e-01
4.540000000000000036e+00 7.709888582486515984e-01
4.560000000000000497e+00 7.668207092947927350e-01
4.580000000000000071e+00 7.626837711944980391e-01
4.600000000000000533e+00 7.585777216518094779e-01
4.620000000000000107e+00 7.545022495437441190e-01
4.639999999999999680e+00 7.504570410851125750e-01
4.660000000000000142e+00 7.464417932860967220e-01
4.679999999999999716e+00 7.424562006208220710e-01
4.700000000000000178e+00 7.384999679816453000e-01
4.719999999999999751e+00 7.345727978581486628e-01
4.740000000000000213e+00 7.306744027813316666e-01
4.759999999999999787e+00 7.268044930197997688e-01
4.780000000000000249e+00 7.229627885071212567e-01
4.799999999999999822e+00 7.191490070617385655e-01
4.820000000000000284e+00 7.153628757908440106e-01
4.839999999999999858e+00 7.116041198406174439e-01
4.860000000000000320e+00 7.078724732700318878e-01
4.879999999999999893e+00 7.041676683378089718e-01
4.900000000000000355e+00 7.004894458396337953e-01
4.919999999999999929e+00 6.968375449383060749e-01
4.940000000000000391e+00 6.932117129579078441e-01
4.959999999999999964e+00 6.896116957634107481e-01
4.980000000000000426e+00 6.860372470053893723e-01
5.000000000000000000e+00 6.824881190554528132e-01
5.020000000000000462e+00 6.789640716951814703e-01
5.040000000000000036e+00 6.754648636134877870e-01
5.060000000000000497e+00 6.719902605335223988e-01
5.080000000000000071e+00 6.685400272782074937e-01
5.100000000000000533e+00 6.651139353288819667e-01
5.120000000000000107e+00 6.617117554650342459e-01
5.139999999999999680e+00 6.583332647485260480e-01
5.160000000000000142e+00 6.549782397436575421e-01
5.179999999999999716e+00 6.516464629208619241e-01
5.200000000000000178e+00 6.483377164630168554e-01
5.219999999999999751e+00 6.450517880825523687e-01
5.240000000000000213e+00 6.417884654200464167e-01
5.259999999999999787e+00 6.385475412687320329e-01
5.280000000000000249e+00 6.353288085712003319e-01
5.299999999999999822e+00 6.321320650453462475e-01
5.320000000000000284e+00 6.289571087851211217e-01
5.339999999999999858e+00 6.258037422820095230e-01
5.360000000000000320e+00 6.226717686355540682e-01
5.379999999999999893e+00 6.195609949644779180e-01
5.400000000000000355e+00 6.164712292328772270e-01
5.419999999999999929e+00 6.134022830451331121e-01
5.440000000000000391e+00 6.103539690934336459e-01
5.459999999999999964e+00 6.073261033306639467e-01
5.480000000000000426e+00 6.043185030450795026e-01
5.500000000000000000e+00 6.013309884053952281e-01
5.520000000000000462e+00 5.983633811681974279e-01
5.540000000000000036e+00 5.954155055894948534e-01
5.560000000000000497e+00 5.924871877706328060e-01
5.580000000000000071e+00 5.895782559305764448e-01
5.600000000000000533e+00 5.866885403958763678e-01
5.620000000000000107e+00 5.838178732279855065e-01
5.639999999999999680e+00 5.809660888630031605e-01
5.660000000000000142e+00 5.781330230883409138e-01
5.679999999999999716e+00 5.753185143377492761e-01
5.700000000000000178e+00 5.725224020116809198e-01
5.719999999999999751e+00 5.697445284332895987e-01
5.740000000000000213e+00 5.669847365068414469e-01
5.759999999999999787e+00 5.642428723401665680e-01
5.780000000000000249e+00 5.615187822354823499e-01
5.799999999999999822e+00 5.588123159839779586e-01
5.820000000000000284e+00 5.561233231834281643e-01
5.839999999999999858e+00 5.534516572103531651e-01
5.860000000000000320e+00 5.507971708588167425e-01
5.879999999999999893e+00 5.481597209958418704e-01
5.900000000000000355e+00 5.455391635157588182e-01
5.919999999999999929e+00 5.429353586843375101e-01
5.940000000000000391e+00 5.403481654030722892e-01
5.959999999999999964e+00 5.377774472477084844e-01
5.980000000000000426e+00 5.352230660368370030e-01
6.000000000000000000e+00 5.326848885702842873e-01
6.020000000000000462e+00 5.301627794963922335e-01
6.040000000000000036e+00 5.276566087559591001e-01
6.060000000000000497e+00 5.251662437425692609e-01
6.080000000000000071e+00 5.226915574575788925e-01
6.100000000000000533e+00 5.202324199578400865e-01
6.120000000000000107e+00 5.177887072274512947e-01
6.140000000000000568e+00 5.153602919072148847e-01
6.160000000000000142e+00 5.129470528886745928e-01
6.179999999999999716e+00 5.105488653196190718e-01
6.200000000000000178e+00 5.081656109261746268e-01
6.219999999999999751e+00 5.057971672886369952e-01
6.240000000000000213e+00 5.034434188972013446e-01
6.259999999999999787e+00 5.011042456923854305e-01
6.280000000000000249e+00 4.987795348602121481e-01
6.299999999999999822e+00 4.964691686314613994e-01
6.320000000000000284e+00 4.941730368219428016e-01
6.339999999999999858e+00 4.918910238847708505e-01
6.360000000000000320e+00 4.896230222016217382e-01
6.379999999999999893e+00 4.873689183822003668e-01
6.400000000000000355e+00 4.851286073121875986e-01
6.419999999999999929e+00 4.829019776940172703e-01
6.440000000000000391e+00 4.806889268574940921e-01
6.459999999999999964e+00 4.784893455359677805e-01
6.480000000000000426e+00 4.763031334454112531e-01
6.500000000000000000e+00 4.741301832900209901e-01
6.520000000000000462e+00 4.719703971158351608e-01
6.540000000000000036e+00 4.698236695397446372e-01
6.560000000000000497e+00 4.676899048835478911e-01
6.580000000000000071e+00 4.655689996202983516e-01
6.600000000000000533e+00 4.634608602949875089e-01
6.620000000000000107e+00 4.613653851820974094e-01
6.640000000000000568e+00 4.592824829989220481e-01
6.660000000000000142e+00 4.572120537681320096e-01
6.679999999999999716e+00 4.551540083300580908e-01
6.700000000000000178e+00 4.531082484040129255e-01
6.719999999999999751e+00 4.510746869056685981e-01
6.740000000000000213e+00 4.490532272008194159e-01
6.759999999999999787e+00 4.470437842343014112e-01
6.780000000000000249e+00 4.450462629698078154e-01
6.799999999999999822e+00 4.430605803366383100e-01
6.820000000000000284e+00 4.410866428490826108e-01
6.839999999999999858e+00 4.391243693776269996e-01
6.860000000000000320e+00 4.371736679413417148e-01
6.879999999999999893e+00 4.352344593099911063e-01
6.900000000000000355e+00 4.333066529628027408e-01
6.919999999999999929e+00 4.313901715282498217e-01
6.940000000000000391e+00 4.294849259024776100e-01
6.959999999999999964e+00 4.275908405333831430e-01
6.980000000000000426e+00 4.257078276918914717e-01
7.000000000000000000e+00 4.238358136072959415e-01
7.020000000000000462e+00 4.219747118844639489e-01
7.040000000000000036e+00 4.201244504972594385e-01
7.060000000000000497e+00 4.182849443446741700e-01
7.080000000000000071e+00 4.164561231094865423e-01
7.100000000000000533e+00 4.146379029462180510e-01
7.120000000000000107e+00 4.128302152120456592e-01
7.140000000000000568e+00 4.110329772793561709e-01
7.160000000000000142e+00 4.092461221463041254e-01
7.179999999999999716e+00 4.074695683666354484e-01
7.200000000000000178e+00 4.057032505471235284e-01
7.219999999999999751e+00 4.039470883872208207e-01
7.240000000000000213e+00 4.022010180709976179e-01
7.259999999999999787e+00 4.004649604090491644e-01
7.280000000000000249e+00 3.987388531324125296e-01
7.299999999999999822e+00 3.970226181290452128e-01
7.320000000000000284e+00 3.953161946475923227e-01
7.339999999999999858e+00 3.936195056206254206e-01
7.360000000000000320e+00 3.919324917859788315e-01
7.379999999999999893e+00 3.902550770887989739e-01
7.400000000000000355e+00 3.885872037286016156e-01
7.419999999999999929e+00 3.869287966320391625e-01
7.440000000000000391e+00 3.852797994336818466e-01
7.459999999999999964e+00 3.836401380112764992e-01
7.480000000000000426e+00 3.820097574086785408e-01
7.500000000000000000e+00 3.803885844252304360e-01
7.520000000000000462e+00 3.787765654891296352e-01
7.540000000000000036e+00 3.771736282924188499e-01
7.560000000000000497e+00 3.755797206235083618e-01
7.580000000000000071e+00 3.739947710390928992e-01
7.600000000000000533e+00 3.724187286644412564e-01
7.620000000000000107e+00 3.708515228934115560e-01
7.640000000000000568e+00 3.692931041655451718e-01
7.660000000000000142e+00 3.677434026851790771e-01
7.679999999999999716e+00 3.662023701842722079e-01
7.700000000000000178e+00 3.646699376514491164e-01
7.719999999999999751e+00 3.631460580899543156e-01
7.740000000000000213e+00 3.616306632472791049e-01
7.759999999999999787e+00 3.601237073775171993e-01
7.780000000000000249e+00 3.586251229620500691e-01
7.799999999999999822e+00 3.571348654860564964e-01
7.820000000000000284e+00 3.556528681405637382e-01
7.839999999999999858e+00 3.541790876227334794e-01
7.860000000000000320e+00 3.527134578093849560e-01
7.879999999999999893e+00 3.512559365912047982e-01
