# Electrodo circular de radio 6 mm y espesor 710.0 um.
# Volumen de simulacion (convencion z,y,x):
# N: 1024 x 1024 x 1024 | voxelSize:  0.02mm x 0.02mm x 0.02mm | FOV:  20.48mm x 20.48mm x 20.48mm
# 
# z [mm]		 delta[ppm]
0.000000000000000000e+00 3.841568423235651952e+00
2.000000000000000042e-02 3.820122355051497109e+00
4.000000000000000083e-02 3.798240294276027385e+00
5.999999999999999778e-02 3.775942765522992239e+00
8.000000000000000167e-02 3.753250101775880143e+00
1.000000000000000056e-01 3.730182695882231503e+00
1.199999999999999956e-01 3.706760904776683407e+00
1.400000000000000133e-01 3.683005050779640133e+00
1.600000000000000033e-01 3.658935352274136132e+00
1.799999999999999933e-01 3.634571916091090316e+00
2.000000000000000111e-01 3.609934678761378191e+00
2.200000000000000011e-01 3.585043396182935105e+00
2.399999999999999911e-01 3.559917591777119306e+00
2.600000000000000089e-01 3.534576546315103318e+00
2.800000000000000266e-01 3.509039251055720232e+00
2.999999999999999889e-01 3.483324399473750610e+00
3.200000000000000067e-01 3.457450344632554184e+00
3.400000000000000244e-01 3.431435093721425744e+00
3.599999999999999867e-01 3.405296269290533306e+00
3.800000000000000044e-01 3.379051107112441610e+00
4.000000000000000222e-01 3.352716421049963813e+00
4.199999999999999845e-01 3.326308604509667699e+00
4.400000000000000022e-01 3.299843598767115527e+00
4.600000000000000200e-01 3.273336898118125227e+00
4.799999999999999822e-01 3.246803521464298292e+00
5.000000000000000000e-01 3.220258021148410421e+00
5.200000000000000178e-01 3.193714457594734046e+00
5.400000000000000355e-01 3.167186411723612149e+00
5.600000000000000533e-01 3.140686962396695314e+00
5.799999999999999600e-01 3.114228702236796487e+00
5.999999999999999778e-01 3.087823717614133656e+00
6.199999999999999956e-01 3.061483607644816640e+00
6.400000000000000133e-01 3.035219466419943224e+00
6.600000000000000311e-01 3.009041904919640853e+00
6.800000000000000488e-01 2.982961035183194110e+00
7.000000000000000666e-01 2.956986494851095770e+00
7.199999999999999734e-01 2.931127432957937984e+00
7.399999999999999911e-01 2.905392536803072190e+00
7.600000000000000089e-01 2.879790019057808959e+00
7.800000000000000266e-01 2.854327646662361495e+00
8.000000000000000444e-01 2.829012728939148236e+00
8.200000000000000622e-01 2.803852148219786677e+00
8.399999999999999689e-01 2.778852348677506079e+00
8.599999999999999867e-01 2.754019368400081991e+00
8.800000000000000044e-01 2.729358828666825332e+00
9.000000000000000222e-01 2.704875967201184395e+00
9.200000000000000400e-01 2.680575627646190728e+00
9.400000000000000577e-01 2.656462293751385761e+00
9.599999999999999645e-01 2.632540078820307272e+00
9.799999999999999822e-01 2.608812760610258685e+00
1.000000000000000000e+00 2.585283770556603411e+00
1.020000000000000018e+00 2.561956229188571577e+00
1.040000000000000036e+00 2.538832934957483189e+00
1.060000000000000053e+00 2.515916399997144115e+00
1.080000000000000071e+00 2.493208838413576878e+00
1.100000000000000089e+00 2.470712202243082078e+00
1.120000000000000107e+00 2.448428169082725869e+00
1.140000000000000124e+00 2.426358178122855591e+00
1.159999999999999920e+00 2.404503417024920431e+00
1.179999999999999938e+00 2.382864857927177837e+00
1.199999999999999956e+00 2.361443243495258137e+00
1.219999999999999973e+00 2.340239122820109152e+00
1.239999999999999991e+00 2.319252836589639877e+00
1.260000000000000009e+00 2.298484552816012272e+00
1.280000000000000027e+00 2.277934251091759066e+00
1.300000000000000044e+00 2.257601758099673006e+00
1.320000000000000062e+00 2.237486730934939327e+00
1.340000000000000080e+00 2.217588692364727887e+00
1.360000000000000098e+00 2.197907013208938665e+00
1.380000000000000115e+00 2.178440947328600608e+00
1.400000000000000133e+00 2.159189613071425207e+00
1.419999999999999929e+00 2.140152027978002636e+00
1.439999999999999947e+00 2.121327089305776070e+00
1.459999999999999964e+00 2.102713608450270666e+00
1.479999999999999982e+00 2.084310290570768220e+00
1.500000000000000000e+00 2.066115768730308222e+00
1.520000000000000018e+00 2.048128582650679874e+00
1.540000000000000036e+00 2.030347212580084992e+00
1.560000000000000053e+00 2.012770057211545893e+00
1.580000000000000071e+00 1.995395467290899560e+00
1.600000000000000089e+00 1.978221722734663013e+00
1.620000000000000107e+00 1.961247065993822147e+00
1.640000000000000124e+00 1.944469678411186342e+00
1.660000000000000142e+00 1.927887713358198196e+00
1.679999999999999938e+00 1.911499271871981209e+00
1.699999999999999956e+00 1.895302435583453571e+00
1.719999999999999973e+00 1.879295241676515626e+00
1.739999999999999991e+00 1.863475715626034868e+00
1.760000000000000009e+00 1.847841845520604265e+00
1.780000000000000027e+00 1.832391614628849918e+00
1.800000000000000044e+00 1.817122975128154128e+00
1.820000000000000062e+00 1.802033880517126985e+00
1.840000000000000080e+00 1.787122258790923013e+00
1.860000000000000098e+00 1.772386044716808495e+00
1.880000000000000115e+00 1.757823152496881258e+00
1.900000000000000133e+00 1.743431507922498680e+00
1.919999999999999929e+00 1.729209020563006849e+00
1.939999999999999947e+00 1.715153615813491683e+00
1.959999999999999964e+00 1.701263206647812609e+00
1.979999999999999982e+00 1.687535725572661516e+00
2.000000000000000000e+00 1.673969095980845312e+00
2.020000000000000018e+00 1.660561264023146855e+00
2.040000000000000036e+00 1.647310169597213880e+00
2.060000000000000053e+00 1.634213778147168172e+00
2.080000000000000071e+00 1.621270051321083594e+00
2.100000000000000089e+00 1.608476978706750105e+00
2.120000000000000107e+00 1.595832548190085243e+00
2.140000000000000124e+00 1.583334777633918167e+00
2.160000000000000142e+00 1.570981684967370340e+00
2.180000000000000160e+00 1.558771319813090805e+00
2.200000000000000178e+00 1.546701733336991014e+00
2.220000000000000195e+00 1.534771009827919919e+00
2.240000000000000213e+00 1.522977236335001816e+00
2.260000000000000231e+00 1.511318534202427788e+00
2.280000000000000249e+00 1.499793028521023919e+00
2.300000000000000266e+00 1.488398879619565962e+00
2.319999999999999840e+00 1.477134252355255084e+00
2.339999999999999858e+00 1.465997347561782016e+00
2.359999999999999876e+00 1.454986371202888984e+00
2.379999999999999893e+00 1.444099565776278515e+00
2.399999999999999911e+00 1.433335179352662303e+00
2.419999999999999929e+00 1.422691496933636168e+00
2.439999999999999947e+00 1.412166809398194278e+00
2.459999999999999964e+00 1.401759444811708999e+00
2.479999999999999982e+00 1.391467737300332574e+00
2.500000000000000000e+00 1.381290058307381496e+00
2.520000000000000018e+00 1.371224785415708913e+00
2.540000000000000036e+00 1.361270333547014211e+00
2.560000000000000053e+00 1.351425123750854995e+00
2.580000000000000071e+00 1.341687614341697365e+00
2.600000000000000089e+00 1.332056269673004500e+00
2.620000000000000107e+00 1.322529591206217381e+00
2.640000000000000124e+00 1.313106086287094021e+00
2.660000000000000142e+00 1.303784299140213987e+00
2.680000000000000160e+00 1.294562779664632624e+00
2.700000000000000178e+00 1.285440114346972029e+00
2.720000000000000195e+00 1.276414895092315094e+00
2.740000000000000213e+00 1.267485750048517490e+00
2.760000000000000231e+00 1.258651312488185736e+00
2.780000000000000249e+00 1.249910251536430428e+00
2.800000000000000266e+00 1.241261241118773340e+00
2.819999999999999840e+00 1.232702990584205960e+00
2.839999999999999858e+00 1.224234213733854659e+00
2.859999999999999876e+00 1.215853659330908609e+00
2.879999999999999893e+00 1.207560080223952559e+00
2.899999999999999911e+00 1.199352263735063318e+00
2.919999999999999929e+00 1.191229000891775858e+00
2.939999999999999947e+00 1.183189116684387310e+00
2.959999999999999964e+00 1.175231439419692103e+00
2.979999999999999982e+00 1.167354830838373214e+00
3.000000000000000000e+00 1.159558155603715557e+00
3.020000000000000018e+00 1.151840311269782147e+00
3.040000000000000036e+00 1.144200197917546014e+00
3.060000000000000053e+00 1.136636747964439476e+00
3.080000000000000071e+00 1.129148895960470744e+00
3.100000000000000089e+00 1.121735608229588399e+00
3.120000000000000107e+00 1.114395852837662293e+00
3.140000000000000124e+00 1.107128629056044922e+00
3.160000000000000142e+00 1.099932937513407483e+00
3.180000000000000160e+00 1.092807809471823211e+00
3.200000000000000178e+00 1.085752277173801517e+00
3.220000000000000195e+00 1.078765402921189942e+00
3.240000000000000213e+00 1.071846249628883196e+00
3.260000000000000231e+00 1.064993909696808183e+00
3.280000000000000249e+00 1.058207475781211215e+00
3.300000000000000266e+00 1.051486069449968586e+00
3.320000000000000284e+00 1.044828812182500455e+00
3.339999999999999858e+00 1.038234853798677859e+00
3.359999999999999876e+00 1.031703343697840447e+00
3.379999999999999893e+00 1.025233459051577478e+00
3.399999999999999911e+00 1.018824376292512435e+00
3.419999999999999929e+00 1.012475299061258216e+00
3.439999999999999947e+00 1.006185429955084309e+00
3.459999999999999964e+00 9.999539982194153298e-01
3.479999999999999982e+00 9.937802317666527552e-01
3.500000000000000000e+00 9.876633846026342534e-01
3.520000000000000018e+00 9.816027091253726189e-01
3.540000000000000036e+00 9.755974832769600535e-01
3.560000000000000053e+00 9.696469831321687938e-01
3.580000000000000071e+00 9.637505097663295883e-01
3.600000000000000089e+00 9.579073621432545593e-01
3.620000000000000107e+00 9.521168636897219262e-01
3.640000000000000124e+00 9.463783354923285263e-01
3.660000000000000142e+00 9.406911225692937695e-01
3.680000000000000160e+00 9.350545673853974948e-01
3.700000000000000178e+00 9.294680358118740937e-01
3.720000000000000195e+00 9.239308909687828919e-01
3.740000000000000213e+00 9.184425188638802862e-01
3.760000000000000231e+00 9.130023025712686868e-01
3.780000000000000249e+00 9.076096475402335439e-01
3.800000000000000266e+00 9.022639561192242752e-01
3.820000000000000284e+00 8.969646525257221059e-01
3.839999999999999858e+00 8.917111577241574327e-01
3.859999999999999876e+00 8.865029140479888659e-01
3.879999999999999893e+00 8.813393604403190196e-01
3.899999999999999911e+00 8.762199567194824956e-01
3.919999999999999929e+00 8.711441591906918802e-01
3.939999999999999947e+00 8.661114445465217804e-01
3.959999999999999964e+00 8.611212858581089868e-01
3.979999999999999982e+00 8.561731761020134890e-01
4.000000000000000000e+00 8.512666045390799852e-01
4.020000000000000462e+00 8.464010798592804807e-01
4.040000000000000036e+00 8.415761069564798857e-01
4.060000000000000497e+00 8.367912096829959179e-01
4.080000000000000071e+00 8.320459080281168429e-01
4.099999999999999645e+00 8.273397404742093286e-01
4.120000000000000107e+00 8.226722415869971439e-01
4.139999999999999680e+00 8.180429639651433105e-01
4.160000000000000142e+00 8.134514562499425283e-01
4.179999999999999716e+00 8.088972846604168820e-01
4.200000000000000178e+00 8.043800114301793425e-01
4.219999999999999751e+00 7.998992159202312768e-01
4.240000000000000213e+00 7.954544734903840064e-01
4.259999999999999787e+00 7.910453761820266383e-01
4.280000000000000249e+00 7.866715120316692955e-01
4.299999999999999822e+00 7.823324853160497083e-01
4.320000000000000284e+00 7.780278963149834803e-01
4.339999999999999858e+00 7.737573611113026661e-01
4.360000000000000320e+00 7.695204918103459857e-01
4.379999999999999893e+00 7.653169158873425193e-01
4.400000000000000355e+00 7.611462568704825404e-01
4.419999999999999929e+00 7.570081532284671511e-01
4.440000000000000391e+00 7.529022395242888077e-01
4.459999999999999964e+00 7.488281648357569820e-01
4.480000000000000426e+00 7.447855743867594080e-01
4.500000000000000000e+00 7.407741274936635589e-01
4.520000000000000462e+00 7.367934796809890718e-01
4.540000000000000036e+00 7.328433001467242747e-01
4.560000000000000497e+00 7.289232543689553312e-01
4.580000000000000071e+00 7.250330210832220956e-01
4.600000000000000533e+00 7.211722753868408109e-01
4.620000000000000107e+00 7.173407052215238222e-01
4.639999999999999680e+00 7.135379949817656220e-01
4.660000000000000142e+00 7.097638414960567577e-01
4.679999999999999716e+00 7.060179381458674408e-01
4.700000000000000178e+00 7.022999903388807974e-01
4.719999999999999751e+00 6.986097001447643118e-01
4.740000000000000213e+00 6.949467812539417144e-01
4.759999999999999787e+00 6.913109441365149488e-01
4.780000000000000249e+00 6.877019104801752603e-01
4.799999999999999822e+00 6.841193988782982016e-01
4.820000000000000284e+00 6.805631387407105048e-01
4.839999999999999858e+00 6.770328565171264135e-01
4.860000000000000320e+00 6.735282890745672990e-01
4.879999999999999893e+00 6.700491704619976341e-01
4.900000000000000355e+00 6.665952447482691445e-01
4.919999999999999929e+00 6.631662533339874877e-01
4.940000000000000391e+00 6.597619472439386623e-01
4.959999999999999964e+00 6.563820749918892750e-01
4.980000000000000426e+00 6.530263943215237621e-01
5.000000000000000000e+00 6.496946606300673110e-01
5.020000000000000462e+00 6.463866381518663662e-01
5.040000000000000036e+00 6.431020889463554546e-01
5.060000000000000497e+00 6.398407835184959369e-01
5.080000000000000071e+00 6.366024903768282561e-01
5.100000000000000533e+00 6.333869860850257494e-01
5.120000000000000107e+00 6.301940453954566479e-01
5.139999999999999680e+00 6.270234507261867041e-01
5.160000000000000142e+00 6.238749828756638971e-01
5.179999999999999716e+00 6.207484299195803468e-01
5.200000000000000178e+00 6.176435785119623878e-01
5.219999999999999751e+00 6.145602221963674117e-01
5.240000000000000213e+00 6.114981532988694735e-01
5.259999999999999787e+00 6.084571706481289866e-01
5.280000000000000249e+00 6.054370720654390636e-01
5.299999999999999822e+00 6.024376614882711589e-01
5.320000000000000284e+00 5.994587420627593977e-01
5.339999999999999858e+00 5.965001226653843247e-01
5.360000000000000320e+00 5.935616116029461820e-01
5.379999999999999893e+00 5.906430225270964396e-01
5.400000000000000355e+00 5.877441687470984499e-01
5.419999999999999929e+00 5.848648685319537410e-01
5.440000000000000391e+00 5.820049400409179619e-01
5.459999999999999964e+00 5.791642060080314236e-01
5.480000000000000426e+00 5.763424892955937295e-01
5.500000000000000000e+00 5.735396169559512369e-01
5.520000000000000462e+00 5.707554164128016971e-01
5.540000000000000036e+00 5.679897188951448239e-01
5.560000000000000497e+00 5.652423562515440647e-01
5.580000000000000071e+00 5.625131637511666671e-01
5.600000000000000533e+00 5.598019775358173966e-01
5.620000000000000107e+00 5.571086367830327957e-01
5.639999999999999680e+00 5.544329818009589017e-01
5.660000000000000142e+00 5.517748555485035844e-01
5.679999999999999716e+00 5.491341023777926988e-01
5.700000000000000178e+00 5.465105689064213568e-01
5.719999999999999751e+00 5.439041034125140506e-01
5.740000000000000213e+00 5.413145560541197110e-01
5.759999999999999787e+00 5.387417789215777075e-01
5.780000000000000249e+00 5.361856255991401810e-01
5.799999999999999822e+00 5.336459518796242696e-01
5.820000000000000284e+00 5.311226146633706291e-01
5.839999999999999858e+00 5.286154733398246153e-01
5.860000000000000320e+00 5.261243880189573341e-01
5.879999999999999893e+00 5.236492215847490250e-01
5.900000000000000355e+00 5.211898372541861058e-01
5.919999999999999929e+00 5.187461013072812710e-01
5.940000000000000391e+00 5.163178799687998533e-01
5.959999999999999964e+00 5.139050428197587950e-01
5.980000000000000426e+00 5.115074589970246555e-01
6.000000000000000000e+00 5.091250012909270817e-01
6.020000000000000462e+00 5.067575416578736780e-01
6.040000000000000036e+00 5.044049560090239082e-01
6.060000000000000497e+00 5.020671190310735943e-01
6.080000000000000071e+00 4.997439096706229322e-01
6.100000000000000533e+00 4.974352052582736716e-01
6.120000000000000107e+00 4.951408876936512216e-01
6.140000000000000568e+00 4.928608368679589513e-01
6.160000000000000142e+00 4.905949375542943414e-01
6.179999999999999716e+00 4.883430721237996264e-01
6.200000000000000178e+00 4.861051281462566154e-01
6.219999999999999751e+00 4.838809903949381486e-01
6.240000000000000213e+00 4.816705491621747215e-01
6.259999999999999787e+00 4.794736915480041217e-01
6.280000000000000249e+00 4.772903104957275655e-01
6.299999999999999822e+00 4.751202953594401701e-01
6.320000000000000284e+00 4.729635416642999912e-01
6.339999999999999858e+00 4.708199409479910114e-01
6.360000000000000320e+00 4.686893912507873461e-01
6.379999999999999893e+00 4.665717862259753934e-01
6.400000000000000355e+00 4.644670263644921082e-01
6.419999999999999929e+00 4.623750073692970419e-01
6.440000000000000391e+00 4.602956321197350098e-01
6.459999999999999964e+00 4.582287983048276003e-01
6.480000000000000426e+00 4.561744111322009188e-01
6.500000000000000000e+00 4.541323702152121333e-01
6.520000000000000462e+00 4.521025830316831584e-01
6.540000000000000036e+00 4.500849510597447201e-01
6.560000000000000497e+00 4.480793839913016496e-01
6.580000000000000071e+00 4.460857851114308215e-01
6.600000000000000533e+00 4.441040662719109577e-01
6.620000000000000107e+00 4.421341325089562790e-01
6.640000000000000568e+00 4.401758977818405749e-01
6.660000000000000142e+00 4.382292688236944511e-01
6.679999999999999716e+00 4.362941616506746390e-01
6.700000000000000178e+00 4.343704846405015418e-01
6.719999999999999751e+00 4.324581558173063445e-01
6.740000000000000213e+00 4.305570851525319931e-01
6.759999999999999787e+00 4.286671926310167136e-01
6.780000000000000249e+00 4.267883897688202754e-01
6.799999999999999822e+00 4.249205984658139257e-01
6.820000000000000284e+00 4.230637317349024706e-01
6.839999999999999858e+00 4.212177133468475443e-01
6.860000000000000320e+00 4.193824577652815466e-01
6.879999999999999893e+00 4.175578905891800807e-01
6.900000000000000355e+00 4.157439276880208756e-01
6.919999999999999929e+00 4.139404964477481075e-01
6.940000000000000391e+00 4.121475141003387299e-01
6.959999999999999964e+00 4.103649097788341638e-01
6.980000000000000426e+00 4.085926020354888055e-01
7.000000000000000000e+00 4.068305217119042583e-01
7.020000000000000462e+00 4.050785886398399205e-01
7.040000000000000036e+00 4.033367353321960502e-01
7.060000000000000497e+00 4.016048828604923959e-01
7.080000000000000071e+00 3.998829653729059630e-01
7.100000000000000533e+00 3.981709051423309997e-01
7.120000000000000107e+00 3.964686379174020003e-01
7.140000000000000568e+00 3.947760871349314526e-01
7.160000000000000142e+00 3.930931901103468795e-01
7.179999999999999716e+00 3.914198714082070540e-01
7.200000000000000178e+00 3.897560698781837307e-01
7.219999999999999751e+00 3.881017111772544492e-01
7.240000000000000213e+00 3.864567356578716972e-01
7.259999999999999787e+00 3.848210700353134062e-01
7.280000000000000249e+00 3.831946561343883562e-01
7.299999999999999822e+00 3.815774216953168319e-01
7.320000000000000284e+00 3.799693099858540424e-01
7.339999999999999858e+00 3.783702497389536679e-01
7.360000000000000320e+00 3.767801856368838131e-01
7.379999999999999893e+00 3.751990473738016640e-01
7.400000000000000355e+00 3.736267810190031513e-01
7.419999999999999929e+00 3.720633171973996567e-01
7.440000000000000391e+00 3.705086033387418598e-01
7.459999999999999964e+00 3.689625709688668098e-01
7.480000000000000426e+00 3.674251688522947035e-01
7.500000000000000000e+00 3.658963293869765820e-01
7.520000000000000462e+00 3.643760026473711888e-01
7.540000000000000036e+00 3.628641218752943209e-01
7.560000000000000497e+00 3.613606384311472963e-01
7.580000000000000071e+00 3.598654863733092291e-01
7.600000000000000533e+00 3.583786183249299540e-01
7.620000000000000107e+00 3.568999691341594449e-01
7.640000000000000568e+00 3.554294926644864239e-01
7.660000000000000142e+00 3.539671245279464862e-01
7.679999999999999716e+00 3.525128198067056795e-01
7.700000000000000178e+00 3.510665148512366329e-01
7.719999999999999751e+00 3.496281659414622323e-01
7.740000000000000213e+00 3.481977101417106368e-01
7.759999999999999787e+00 3.467751049094500715e-01
7.780000000000000249e+00 3.453602879986663043e-01
7.799999999999999822e+00 3.439532180248469073e-01
7.820000000000000284e+00 3.425538334082667280e-01
7.839999999999999858e+00 3.411620939035777123e-01
7.860000000000000320e+00 3.397779385743005531e-01
7.879999999999999893e+00 3.384013282960505742e-01
