# Electrodo circular de radio 6 mm y espesor 710.0 um.
# Volumen de simulacion (convencion z,y,x):
# N: 1024 x 1024 x 1024 | voxelSize:  0.02mm x 0.02mm x 0.02mm | FOV:  20.48mm x 20.48mm x 20.48mm
# 
# z [mm]		 delta[ppm]
0.000000000000000000e+00 4.708022895697811627e+00
2.000000000000000042e-02 4.657757241832323203e+00
4.000000000000000083e-02 4.606870702848134158e+00
5.999999999999999778e-02 4.555439834113793829e+00
8.000000000000000167e-02 4.503539991900560757e+00
1.000000000000000056e-01 4.451245427076770511e+00
1.199999999999999956e-01 4.398628961642071289e+00
1.400000000000000133e-01 4.345761807221432349e+00
1.600000000000000033e-01 4.292713294720640782e+00
1.799999999999999933e-01 4.239550700532222827e+00
2.000000000000000111e-01 4.186339027221807285e+00
2.200000000000000011e-01 4.133140861756122497e+00
2.399999999999999911e-01 4.080016202901492584e+00
2.600000000000000089e-01 4.027022360247077160e+00
2.800000000000000266e-01 3.974213828373718727e+00
2.999999999999999889e-01 3.921642229182678019e+00
3.200000000000000067e-01 3.869356231132004442e+00
3.400000000000000244e-01 3.817401534149175824e+00
3.599999999999999867e-01 3.765820830819909926e+00
3.800000000000000044e-01 3.714653830690227032e+00
4.000000000000000222e-01 3.663937258551903664e+00
4.199999999999999845e-01 3.613704913286420961e+00
4.400000000000000022e-01 3.563987697455500925e+00
4.600000000000000200e-01 3.514813704800563876e+00
4.799999999999999822e-01 3.466208274674430267e+00
5.000000000000000000e-01 3.418194101893643921e+00
5.200000000000000178e-01 3.370791309550817516e+00
5.400000000000000355e-01 3.324017574971662281e+00
5.600000000000000533e-01 3.277888214702645353e+00
5.799999999999999600e-01 3.232416320766985152e+00
5.999999999999999778e-01 3.187612852290009346e+00
6.199999999999999956e-01 3.143486776931766702e+00
6.400000000000000133e-01 3.100045164363774752e+00
6.600000000000000311e-01 3.057293328586860426e+00
6.800000000000000488e-01 3.015234919388982249e+00
7.000000000000000666e-01 2.973872062127316696e+00
7.199999999999999734e-01 2.933205444145289054e+00
7.399999999999999911e-01 2.893234449447485090e+00
7.600000000000000089e-01 2.853957237905947242e+00
7.800000000000000266e-01 2.815370873027544629e+00
8.000000000000000444e-01 2.777471392486102530e+00
8.200000000000000622e-01 2.740253927852727589e+00
8.399999999999999689e-01 2.703712765629474823e+00
8.599999999999999867e-01 2.667841458365842300e+00
8.800000000000000044e-01 2.632632875850724474e+00
9.000000000000000222e-01 2.598079307477671573e+00
9.200000000000000400e-01 2.564172503655245183e+00
9.400000000000000577e-01 2.530903769613612742e+00
9.599999999999999645e-01 2.498263997362918154e+00
9.799999999999999822e-01 2.466243751370709614e+00
1.000000000000000000e+00 2.434833291608148542e+00
1.020000000000000018e+00 2.404022651683635381e+00
1.040000000000000036e+00 2.373801653628810460e+00
1.060000000000000053e+00 2.344159979166444252e+00
1.080000000000000071e+00 2.315087176966223570e+00
1.100000000000000089e+00 2.286572727766479574e+00
1.120000000000000107e+00 2.258606044842837779e+00
1.140000000000000124e+00 2.231176533708361998e+00
1.159999999999999920e+00 2.204273586538548990e+00
1.179999999999999938e+00 2.177886637151967175e+00
1.199999999999999956e+00 2.152005150095464892e+00
1.219999999999999973e+00 2.126618671567595875e+00
1.239999999999999991e+00 2.101716813830213137e+00
1.260000000000000009e+00 2.077289302685474848e+00
1.280000000000000027e+00 2.053325957818858960e+00
1.300000000000000044e+00 2.029816737383776992e+00
1.320000000000000062e+00 2.006751714830001365e+00
1.340000000000000080e+00 1.984121121090740125e+00
1.360000000000000098e+00 1.961915318385938800e+00
1.380000000000000115e+00 1.940124840448671506e+00
1.400000000000000133e+00 1.918740363742082566e+00
1.419999999999999929e+00 1.897752746106218691e+00
1.439999999999999947e+00 1.877152995768591737e+00
1.459999999999999964e+00 1.856932308740962156e+00
1.479999999999999982e+00 1.837082035959443749e+00
1.500000000000000000e+00 1.817593719713238132e+00
1.520000000000000018e+00 1.798459059200732790e+00
1.540000000000000036e+00 1.779669946229671007e+00
1.560000000000000053e+00 1.761218429440228439e+00
1.580000000000000071e+00 1.743096749478033392e+00
1.600000000000000089e+00 1.725297302095536445e+00
1.620000000000000107e+00 1.707812672965960399e+00
1.640000000000000124e+00 1.690635599847259085e+00
1.660000000000000142e+00 1.673759007175783742e+00
1.679999999999999938e+00 1.657175967446284481e+00
1.699999999999999956e+00 1.640879735698848041e+00
1.719999999999999973e+00 1.624863710248704907e+00
1.739999999999999991e+00 1.609121467158095120e+00
1.760000000000000009e+00 1.593646720426157515e+00
1.780000000000000027e+00 1.578433356518789132e+00
1.800000000000000044e+00 1.563475394115067196e+00
1.820000000000000062e+00 1.548767018752211788e+00
1.840000000000000080e+00 1.534302542207317321e+00
1.860000000000000098e+00 1.520076437301119743e+00
1.880000000000000115e+00 1.506083296984507935e+00
1.900000000000000133e+00 1.492317869333390723e+00
1.919999999999999929e+00 1.478775016396222775e+00
1.939999999999999947e+00 1.465449749402820689e+00
1.959999999999999964e+00 1.452337187423171638e+00
1.979999999999999982e+00 1.439432592805019562e+00
2.000000000000000000e+00 1.426731329684364225e+00
2.020000000000000018e+00 1.414228899660066041e+00
2.040000000000000036e+00 1.401920900192918262e+00
2.060000000000000053e+00 1.389803060519996913e+00
2.080000000000000071e+00 1.377871199971744787e+00
2.100000000000000089e+00 1.366121264124341650e+00
2.120000000000000107e+00 1.354549283062460585e+00
2.140000000000000124e+00 1.343151407764192840e+00
2.160000000000000142e+00 1.331923868331464700e+00
2.180000000000000160e+00 1.320863010599109932e+00
2.200000000000000178e+00 1.309965254354354292e+00
2.220000000000000195e+00 1.299227130159158250e+00
2.240000000000000213e+00 1.288645237575806179e+00
2.260000000000000231e+00 1.278216282189771347e+00
2.280000000000000249e+00 1.267937033858618445e+00
2.300000000000000266e+00 1.257804363921118496e+00
2.319999999999999840e+00 1.247815203483223945e+00
2.339999999999999858e+00 1.237966580797984051e+00
2.359999999999999876e+00 1.228255579603120484e+00
2.379999999999999893e+00 1.218679376655367852e+00
2.399999999999999911e+00 1.209235200131339560e+00
2.419999999999999929e+00 1.199920367299309287e+00
2.439999999999999947e+00 1.190732242996146661e+00
2.459999999999999964e+00 1.181668277419034352e+00
2.479999999999999982e+00 1.172725964688908995e+00
2.500000000000000000e+00 1.163902880744333013e+00
2.520000000000000018e+00 1.155196642003152308e+00
2.540000000000000036e+00 1.146604943340550298e+00
2.560000000000000053e+00 1.138125516858590647e+00
2.580000000000000071e+00 1.129756169930429488e+00
2.600000000000000089e+00 1.121494744088808337e+00
2.620000000000000107e+00 1.113339153118412028e+00
2.640000000000000124e+00 1.105287342072558410e+00
2.660000000000000142e+00 1.097337325395772112e+00
2.680000000000000160e+00 1.089487146079390678e+00
2.700000000000000178e+00 1.081734913796556619e+00
2.720000000000000195e+00 1.074078764205776748e+00
2.740000000000000213e+00 1.066516897080738158e+00
2.760000000000000231e+00 1.059047535772343007e+00
2.780000000000000249e+00 1.051668965315954773e+00
2.800000000000000266e+00 1.044379492060864667e+00
2.819999999999999840e+00 1.037177481737839857e+00
2.839999999999999858e+00 1.030061319266435405e+00
2.859999999999999876e+00 1.023029446765980399e+00
2.879999999999999893e+00 1.016080323549655606e+00
2.899999999999999911e+00 1.009212464062352765e+00
2.919999999999999929e+00 1.002424398071877887e+00
2.939999999999999947e+00 9.957147085173804202e-01
2.959999999999999964e+00 9.890819919066141663e-01
2.979999999999999982e+00 9.825248960589769709e-01
3.000000000000000000e+00 9.760420807191237946e-01
3.020000000000000018e+00 9.696322551789695599e-01
3.040000000000000036e+00 9.632941391165450451e-01
3.060000000000000053e+00 9.570265000816217116e-01
3.080000000000000071e+00 9.508281145700893111e-01
3.100000000000000089e+00 9.446978053581465140e-01
3.120000000000000107e+00 9.386344028210840129e-01
3.140000000000000124e+00 9.326367821013361592e-01
3.160000000000000142e+00 9.267038246818546376e-01
3.180000000000000160e+00 9.208344553736211857e-01
3.200000000000000178e+00 9.150276041524252335e-01
3.220000000000000195e+00 9.092822429517632976e-01
3.240000000000000213e+00 9.035973477731089609e-01
3.260000000000000231e+00 8.979719352704162993e-01
3.280000000000000249e+00 8.924050251426239866e-01
3.300000000000000266e+00 8.868956764962913075e-01
3.320000000000000284e+00 8.814429505303047474e-01
3.339999999999999858e+00 8.760459466634765713e-01
3.359999999999999876e+00 8.707037655200774440e-01
3.379999999999999893e+00 8.654155448095185443e-01
3.399999999999999911e+00 8.601804226225451266e-01
3.419999999999999929e+00 8.549975730504073557e-01
3.439999999999999947e+00 8.498661698001992448e-01
3.459999999999999964e+00 8.447854215412281542e-01
3.479999999999999982e+00 8.397545358491392831e-01
3.500000000000000000e+00 8.347727542674879819e-01
3.520000000000000018e+00 8.298393165889494938e-01
3.540000000000000036e+00 8.249534956203536940e-01
3.560000000000000053e+00 8.201145618104529467e-01
3.580000000000000071e+00 8.153218177069473382e-01
3.600000000000000089e+00 8.105745629389251583e-01
3.620000000000000107e+00 8.058721283546925740e-01
3.640000000000000124e+00 8.012138413681189064e-01
3.660000000000000142e+00 7.965990597663653583e-01
3.680000000000000160e+00 7.920271374280090093e-01
3.700000000000000178e+00 7.874974577899935824e-01
3.720000000000000195e+00 7.830093999465708166e-01
3.740000000000000213e+00 7.785623717650564934e-01
3.760000000000000231e+00 7.741557763732282993e-01
3.780000000000000249e+00 7.697890449137344548e-01
3.800000000000000266e+00 7.654616034287121673e-01
3.820000000000000284e+00 7.611729052429397901e-01
3.839999999999999858e+00 7.569223982530778327e-01
3.859999999999999876e+00 7.527095569298826172e-01
3.879999999999999893e+00 7.485338500205775958e-01
3.899999999999999911e+00 7.443947721607068191e-01
3.919999999999999929e+00 7.402918119967580868e-01
3.939999999999999947e+00 7.362244833984635806e-01
3.959999999999999964e+00 7.321922940099118149e-01
3.979999999999999982e+00 7.281947760533145075e-01
4.000000000000000000e+00 7.242314553154868273e-01
4.020000000000000462e+00 7.203018815343289472e-01
4.040000000000000036e+00 7.164055978286157922e-01
4.060000000000000497e+00 7.125421706586921866e-01
4.080000000000000071e+00 7.087111597061510615e-01
4.099999999999999645e+00 7.049121474004317323e-01
4.120000000000000107e+00 7.011447092560623151e-01
4.139999999999999680e+00 6.974084429570541754e-01
4.160000000000000142e+00 6.937029391580390447e-01
4.179999999999999716e+00 6.900278101185620683e-01
4.200000000000000178e+00 6.863826609754891672e-01
4.219999999999999751e+00 6.827671179195409223e-01
4.240000000000000213e+00 6.791807999449771538e-01
4.259999999999999787e+00 6.756233465608888489e-01
4.280000000000000249e+00 6.720943900252804859e-01
4.299999999999999822e+00 6.685935825838266178e-01
4.320000000000000284e+00 6.651205691940846876e-01
4.339999999999999858e+00 6.616750142846267169e-01
4.360000000000000320e+00 6.582565749762174789e-01
4.379999999999999893e+00 6.548649273544268068e-01
4.400000000000000355e+00 6.514997401932000054e-01
4.419999999999999929e+00 6.481607007342394811e-01
4.440000000000000391e+00 6.448474889195299209e-01
4.459999999999999964e+00 6.415598026709512514e-01
4.480000000000000426e+00 6.382973326369347777e-01
4.500000000000000000e+00 6.350597869659219130e-01
4.520000000000000462e+00 6.318468665734505718e-01
4.540000000000000036e+00 6.286582894032907154e-01
4.560000000000000497e+00 6.254937662198275516e-01
4.580000000000000071e+00 6.223530243508574866e-01
4.600000000000000533e+00 6.192357840113017486e-01
4.620000000000000107e+00 6.161417815218072080e-01
4.639999999999999680e+00 6.130707461684110626e-01
4.660000000000000142e+00 6.100224228912496383e-01
4.679999999999999716e+00 6.069965496859419662e-01
4.700000000000000178e+00 6.039928797568854257e-01
4.719999999999999751e+00 6.010111594647022937e-01
4.740000000000000213e+00 5.980511499387383134e-01
4.759999999999999787e+00 5.951126055761052358e-01
4.780000000000000249e+00 5.921952951081480565e-01
4.799999999999999822e+00 5.892989806551794940e-01
4.820000000000000284e+00 5.864234382418367364e-01
4.839999999999999858e+00 5.835684374127894092e-01
4.860000000000000320e+00 5.807337611920446729e-01
4.879999999999999893e+00 5.779191862634807109e-01
4.900000000000000355e+00 5.751245023692944658e-01
4.919999999999999929e+00 5.723494930604224873e-01
4.940000000000000391e+00 5.695939545294611550e-01
4.959999999999999964e+00 5.668576769345929911e-01
4.980000000000000426e+00 5.641404626624210161e-01
5.000000000000000000e+00 5.614421082302631927e-01
5.020000000000000462e+00 5.587624219744987686e-01
5.040000000000000036e+00 5.561012065345896094e-01
5.060000000000000497e+00 5.534582759626571757e-01
5.080000000000000071e+00 5.508334387938869092e-01
5.100000000000000533e+00 5.482265145731487488e-01
5.120000000000000107e+00 5.456373175149599186e-01
5.139999999999999680e+00 5.430656724430854565e-01
5.160000000000000142e+00 5.405113990445218342e-01
5.179999999999999716e+00 5.379743272181286562e-01
5.200000000000000178e+00 5.354542819255961872e-01
5.219999999999999751e+00 5.329510979452585229e-01
5.240000000000000213e+00 5.304646053243393666e-01
5.259999999999999787e+00 5.279946435341974498e-01
5.280000000000000249e+00 5.255410475266223402e-01
5.299999999999999822e+00 5.231036612868767977e-01
5.320000000000000284e+00 5.206823244981538812e-01
5.339999999999999858e+00 5.182768854888816223e-01
5.360000000000000320e+00 5.158871885079220343e-01
5.379999999999999893e+00 5.135130860626736515e-01
5.400000000000000355e+00 5.111544268090093546e-01
5.419999999999999929e+00 5.088110672767851561e-01
5.440000000000000391e+00 5.064828603769495619e-01
5.459999999999999964e+00 5.041696665111661257e-01
5.480000000000000426e+00 5.018713426999376059e-01
5.500000000000000000e+00 4.995877530731341332e-01
5.520000000000000462e+00 4.973187586213940747e-01
5.540000000000000036e+00 4.950642270644293186e-01
5.560000000000000497e+00 4.928240232294243128e-01
5.580000000000000071e+00 4.905980182940463674e-01
5.600000000000000533e+00 4.883860807939803816e-01
5.620000000000000107e+00 4.861880852376400663e-01
5.639999999999999680e+00 4.840039037464592409e-01
5.660000000000000142e+00 4.818334140383655484e-01
5.679999999999999716e+00 4.796764917028304986e-01
5.700000000000000178e+00 4.775330175502284780e-01
5.719999999999999751e+00 4.754028705251767128e-01
5.740000000000000213e+00 4.732859344189521700e-01
5.759999999999999787e+00 4.711820914230124835e-01
5.780000000000000249e+00 4.690912282017009050e-01
5.799999999999999822e+00 4.670132300893983235e-01
5.820000000000000284e+00 4.649479865207954421e-01
5.839999999999999858e+00 4.628953858734574656e-01
5.860000000000000320e+00 4.608553202529891424e-01
5.879999999999999893e+00 4.588276809844077930e-01
5.900000000000000355e+00 4.568123627495502825e-01
5.919999999999999929e+00 4.548092597289624117e-01
5.940000000000000391e+00 4.528182690889466788e-01
5.959999999999999964e+00 4.508392877773065299e-01
5.980000000000000426e+00 4.488722153574560281e-01
6.000000000000000000e+00 4.469169514596694204e-01
6.020000000000000462e+00 4.449733979597003120e-01
6.040000000000000036e+00 4.430414570888352443e-01
6.060000000000000497e+00 4.411210329545092179e-01
6.080000000000000071e+00 4.392120303107517887e-01
6.100000000000000533e+00 4.373143554182906123e-01
6.120000000000000107e+00 4.354279154786709904e-01
6.140000000000000568e+00 4.335526188313748031e-01
6.160000000000000142e+00 4.316883750531521069e-01
6.179999999999999716e+00 4.298350944896817127e-01
6.200000000000000178e+00 4.279926890233986536e-01
6.219999999999999751e+00 4.261610709372294359e-01
6.240000000000000213e+00 4.243401543524410457e-01
6.259999999999999787e+00 4.225298534219878999e-01
6.280000000000000249e+00 4.207300844416681507e-01
6.299999999999999822e+00 4.189407633706386802e-01
6.320000000000000284e+00 4.171618086173764506e-01
6.339999999999999858e+00 4.153931378848998990e-01
6.360000000000000320e+00 4.136346716348542896e-01
6.379999999999999893e+00 4.118863292549819755e-01
6.400000000000000355e+00 4.101480332028328291e-01
6.419999999999999929e+00 4.084197044930041320e-01
6.440000000000000391e+00 4.067012675238318997e-01
6.459999999999999964e+00 4.049926448819297087e-01
6.480000000000000426e+00 4.032937628533712071e-01
6.500000000000000000e+00 4.016045455430119482e-01
6.520000000000000462e+00 3.999249210735827953e-01
6.540000000000000036e+00 3.982548150172837698e-01
6.560000000000000497e+00 3.965941572843212914e-01
6.580000000000000071e+00 3.949428748642244691e-01
6.600000000000000533e+00 3.933008994073132758e-01
6.620000000000000107e+00 3.916681592731651729e-01
6.640000000000000568e+00 3.900445878065934568e-01
6.660000000000000142e+00 3.884301146906522506e-01
6.679999999999999716e+00 3.868246749207015500e-01
6.700000000000000178e+00 3.852281994593155234e-01
6.719999999999999751e+00 3.836406249100591803e-01
6.740000000000000213e+00 3.820618834716270618e-01
6.759999999999999787e+00 3.804919133149881616e-01
6.780000000000000249e+00 3.789306478340485618e-01
6.799999999999999822e+00 3.773780267278686318e-01
6.820000000000000284e+00 3.758339845450657801e-01
6.839999999999999858e+00 3.742984624749028377e-01
6.860000000000000320e+00 3.727713961826047973e-01
6.879999999999999893e+00 3.712527283111046184e-01
6.900000000000000355e+00 3.697423956044177396e-01
6.919999999999999929e+00 3.682403421239364150e-01
6.940000000000000391e+00 3.667465056569417792e-01
6.959999999999999964e+00 3.652608316493328733e-01
6.980000000000000426e+00 3.637832588962904290e-01
7.000000000000000000e+00 3.623137341954900115e-01
7.020000000000000462e+00 3.608521973168636876e-01
7.040000000000000036e+00 3.593985963782937998e-01
7.060000000000000497e+00 3.579528720913581208e-01
7.080000000000000071e+00 3.565149738637007903e-01
7.100000000000000533e+00 3.550848433175855523e-01
7.120000000000000107e+00 3.536624311210596616e-01
7.140000000000000568e+00 3.522476797760404343e-01
7.160000000000000142e+00 3.508405411826582276e-01
7.179999999999999716e+00 3.494409586935410261e-01
7.200000000000000178e+00 3.480488854135823651e-01
7.219999999999999751e+00 3.466642655169992482e-01
7.240000000000000213e+00 3.452870532871000209e-01
7.259999999999999787e+00 3.439171936926054274e-01
7.280000000000000249e+00 3.425546421698126842e-01
7.299999999999999822e+00 3.411993444545815546e-01
7.320000000000000284e+00 3.398512571116723002e-01
7.339999999999999858e+00 3.385103266187142745e-01
7.360000000000000320e+00 3.371765106452691563e-01
7.379999999999999893e+00 3.358497563849887069e-01
7.400000000000000355e+00 3.345300225894091706e-01
7.419999999999999929e+00 3.332172571444055875e-01
7.440000000000000391e+00 3.319114198614633859e-01
7.459999999999999964e+00 3.306124592944285068e-01
7.480000000000000426e+00 3.293203362934841172e-01
7.500000000000000000e+00 3.280350000581055969e-01
7.520000000000000462e+00 3.267564124566684214e-01
7.540000000000000036e+00 3.254845233114010417e-01
7.560000000000000497e+00 3.242192954890944501e-01
7.580000000000000071e+00 3.229606794137198089e-01
7.600000000000000533e+00 3.217086389313973949e-01
7.620000000000000107e+00 3.204631250462287584e-01
7.640000000000000568e+00 3.192241025652579056e-01
7.660000000000000142e+00 3.179915230529504755e-01
7.679999999999999716e+00 3.167653522595116899e-01
7.700000000000000178e+00 3.155455422893130302e-01
7.719999999999999751e+00 3.143320598185946335e-01
7.740000000000000213e+00 3.131248574730083334e-01
7.759999999999999787e+00 3.119239028383097301e-01
7.780000000000000249e+00 3.107291490420415747e-01
7.799999999999999822e+00 3.095405645635397329e-01
7.820000000000000284e+00 3.083581030146678170e-01
7.839999999999999858e+00 3.071817337529795799e-01
7.860000000000000320e+00 3.060114108562475566e-01
7.879999999999999893e+00 3.048471045454360095e-01
