# Electrodo circular de radio 6 mm y espesor 710.0 um.
# Volumen de simulacion (convencion z,y,x):
# N: 1024 x 1024 x 1024 | voxelSize:  0.02mm x 0.02mm x 0.02mm | FOV:  20.48mm x 20.48mm x 20.48mm
# 
# z [mm]		 delta[ppm]
0.000000000000000000e+00 5.451144297246943715e+00
2.000000000000000042e-02 5.354704844436397160e+00
4.000000000000000083e-02 5.257795718419665754e+00
5.999999999999999778e-02 5.160649337728772323e+00
8.000000000000000167e-02 5.063492232859474917e+00
1.000000000000000056e-01 4.966542822804668411e+00
1.199999999999999956e-01 4.870009751259119390e+00
1.400000000000000133e-01 4.774090330579631392e+00
1.600000000000000033e-01 4.678969288188630671e+00
1.799999999999999933e-01 4.584817747101659791e+00
2.000000000000000111e-01 4.491792477500629488e+00
2.200000000000000011e-01 4.400035418360135786e+00
2.399999999999999911e-01 4.309673438547724444e+00
2.600000000000000089e-01 4.220818353115008748e+00
2.800000000000000266e-01 4.133567129218421954e+00
2.999999999999999889e-01 4.048002305567590220e+00
3.200000000000000067e-01 3.964192539696320683e+00
3.400000000000000244e-01 3.882193315585343196e+00
3.599999999999999867e-01 3.802047715633481761e+00
3.800000000000000044e-01 3.723787300015704904e+00
4.000000000000000222e-01 3.647432993382980548e+00
4.199999999999999845e-01 3.572996033857208431e+00
4.400000000000000022e-01 3.500478883675380626e+00
4.600000000000000200e-01 3.429876168435622485e+00
4.799999999999999822e-01 3.361175545053952440e+00
5.000000000000000000e-01 3.294358576601963851e+00
5.200000000000000178e-01 3.229401514875603230e+00
5.400000000000000355e-01 3.166276078600569033e+00
5.600000000000000533e-01 3.104950128158358247e+00
5.799999999999999600e-01 3.045388332909690465e+00
5.999999999999999778e-01 2.987552731072914636e+00
6.199999999999999956e-01 2.931403284849735780e+00
6.400000000000000133e-01 2.876898328925658888e+00
6.600000000000000311e-01 2.823995020420352997e+00
6.800000000000000488e-01 2.772649685854299495e+00
7.000000000000000666e-01 2.722818177579545029e+00
7.199999999999999734e-01 2.674456132177527756e+00
7.399999999999999911e-01 2.627519246966909527e+00
7.600000000000000089e-01 2.581963463755053034e+00
7.800000000000000266e-01 2.537745179164904386e+00
8.000000000000000444e-01 2.494821367164107517e+00
8.200000000000000622e-01 2.453149736027274042e+00
8.399999999999999689e-01 2.412688801826440965e+00
8.599999999999999867e-01 2.373398003365749354e+00
8.800000000000000044e-01 2.335237737180440476e+00
9.000000000000000222e-01 2.298169440102687311e+00
9.200000000000000400e-01 2.262155594639331913e+00
9.400000000000000577e-01 2.227159787163499161e+00
9.599999999999999645e-01 2.193146690917473496e+00
9.799999999999999822e-01 2.160082106298248483e+00
1.000000000000000000e+00 2.127932927309522437e+00
1.020000000000000018e+00 2.096667169073437975e+00
1.040000000000000036e+00 2.066253922309371216e+00
1.060000000000000053e+00 2.036663372076672918e+00
1.080000000000000071e+00 2.007866743842572799e+00
1.100000000000000089e+00 1.979836316531366380e+00
1.120000000000000107e+00 1.952545362895457437e+00
1.140000000000000124e+00 1.925968159197067653e+00
1.159999999999999920e+00 1.900079921936782990e+00
1.179999999999999938e+00 1.874856815898069184e+00
1.199999999999999956e+00 1.850275888749781439e+00
1.219999999999999973e+00 1.826315078717633877e+00
1.239999999999999991e+00 1.802953148174751608e+00
1.260000000000000009e+00 1.780169691842920399e+00
1.280000000000000027e+00 1.757945070160457979e+00
1.300000000000000044e+00 1.736260418640050984e+00
1.320000000000000062e+00 1.715097581570073082e+00
1.340000000000000080e+00 1.694439122946414633e+00
1.360000000000000098e+00 1.674268260874757885e+00
1.380000000000000115e+00 1.654568880337486281e+00
1.400000000000000133e+00 1.635325468536313664e+00
1.419999999999999929e+00 1.616523129639439782e+00
1.439999999999999947e+00 1.598147521198424181e+00
1.459999999999999964e+00 1.580184870936553354e+00
1.479999999999999982e+00 1.562621914308309101e+00
1.500000000000000000e+00 1.545445913329376975e+00
1.520000000000000018e+00 1.528644595290502783e+00
1.540000000000000036e+00 1.512206173587397728e+00
1.560000000000000053e+00 1.496119287571207490e+00
1.580000000000000071e+00 1.480373025307716750e+00
1.600000000000000089e+00 1.464956864518133450e+00
1.620000000000000107e+00 1.449860697178514402e+00
1.640000000000000124e+00 1.435074771494845747e+00
1.660000000000000142e+00 1.420589718242355026e+00
1.679999999999999938e+00 1.406396493705820205e+00
1.699999999999999956e+00 1.392486407652775426e+00
1.719999999999999973e+00 1.378851067170784095e+00
1.739999999999999991e+00 1.365482406166524276e+00
1.760000000000000009e+00 1.352372630026960731e+00
1.780000000000000027e+00 1.339514246537199860e+00
1.800000000000000044e+00 1.326900011298373760e+00
1.820000000000000062e+00 1.314522959959766313e+00
1.840000000000000080e+00 1.302376354325484709e+00
1.860000000000000098e+00 1.290453715800272461e+00
1.880000000000000115e+00 1.278748772125084532e+00
1.900000000000000133e+00 1.267255491940593393e+00
1.919999999999999929e+00 1.255968032092769082e+00
1.939999999999999947e+00 1.244880773223177028e+00
1.959999999999999964e+00 1.233988267594270827e+00
1.979999999999999982e+00 1.223285275620684454e+00
2.000000000000000000e+00 1.212766714165504078e+00
2.020000000000000018e+00 1.202427693932004438e+00
2.040000000000000036e+00 1.192263468190486897e+00
2.060000000000000053e+00 1.182269470954903312e+00
2.080000000000000071e+00 1.172441266101329260e+00
2.100000000000000089e+00 1.162774586258802811e+00
2.120000000000000107e+00 1.153265282288239657e+00
2.140000000000000124e+00 1.143909362821355691e+00
2.160000000000000142e+00 1.134702944069925667e+00
2.180000000000000160e+00 1.125642289951021002e+00
2.200000000000000178e+00 1.116723762203513770e+00
2.220000000000000195e+00 1.107943861041833067e+00
2.240000000000000213e+00 1.099299175557274300e+00
2.260000000000000231e+00 1.090786424846249769e+00
2.280000000000000249e+00 1.082402408680185779e+00
2.300000000000000266e+00 1.074144049057684347e+00
2.319999999999999840e+00 1.066008341126972736e+00
2.339999999999999858e+00 1.057992395114590423e+00
2.359999999999999876e+00 1.050093387489945185e+00
2.379999999999999893e+00 1.042308603226012043e+00
2.399999999999999911e+00 1.034635387195292466e+00
2.419999999999999929e+00 1.027071186720752705e+00
2.439999999999999947e+00 1.019613503197429827e+00
2.459999999999999964e+00 1.012259934894270019e+00
2.479999999999999982e+00 1.005008128795007449e+00
2.500000000000000000e+00 9.978558236138289628e-01
2.520000000000000018e+00 9.908008018536066386e-01
2.540000000000000036e+00 9.838409330003736741e-01
2.560000000000000053e+00 9.769741257960161684e-01
2.580000000000000071e+00 9.701983715784761042e-01
2.600000000000000089e+00 9.635116967700129154e-01
2.620000000000000107e+00 9.569122063317769822e-01
2.640000000000000124e+00 9.503980364675305159e-01
2.660000000000000142e+00 9.439673981628352584e-01
2.680000000000000160e+00 9.376185301077828438e-01
2.700000000000000178e+00 9.313497422924972291e-01
2.720000000000000195e+00 9.251593691509648609e-01
2.740000000000000213e+00 9.190458131859229329e-01
2.760000000000000231e+00 9.130074983392234556e-01
2.780000000000000249e+00 9.070429136204333220e-01
2.800000000000000266e+00 9.011505667075155879e-01
2.819999999999999840e+00 8.953290275546197385e-01
2.839999999999999858e+00 8.895768822299816581e-01
2.859999999999999876e+00 8.838927764794488606e-01
2.879999999999999893e+00 8.782753698066928516e-01
2.899999999999999911e+00 8.727233789700113986e-01
2.919999999999999929e+00 8.672355323128725368e-01
2.939999999999999947e+00 8.618106131724297958e-01
2.959999999999999964e+00 8.564474144664814270e-01
2.979999999999999982e+00 8.511447819930400005e-01
3.000000000000000000e+00 8.459015692825139210e-01
3.020000000000000018e+00 8.407166807684652854e-01
3.040000000000000036e+00 8.355890269117961511e-01
3.060000000000000053e+00 8.305175672235725060e-01
3.080000000000000071e+00 8.255012656706335328e-01
3.100000000000000089e+00 8.205391335320542101e-01
3.120000000000000107e+00 8.156301850934613018e-01
3.140000000000000124e+00 8.107734803193908935e-01
3.160000000000000142e+00 8.059680808461031631e-01
3.180000000000000160e+00 8.012130924527169906e-01
3.200000000000000178e+00 7.965076213601079980e-01
3.220000000000000195e+00 7.918508164843109931e-01
3.240000000000000213e+00 7.872418260515153809e-01
3.260000000000000231e+00 7.826798396177674366e-01
3.280000000000000249e+00 7.781640450078405324e-01
3.300000000000000266e+00 7.736936700858101368e-01
3.320000000000000284e+00 7.692679400279124335e-01
3.339999999999999858e+00 7.648861188290868585e-01
3.359999999999999876e+00 7.605474669176457425e-01
3.379999999999999893e+00 7.562512823833340558e-01
3.399999999999999911e+00 7.519968589439559592e-01
3.419999999999999929e+00 7.477835268809872593e-01
3.439999999999999947e+00 7.436106113659202155e-01
3.459999999999999964e+00 7.394774730899220661e-01
3.479999999999999982e+00 7.353834669599377261e-01
3.500000000000000000e+00 7.313279824093178449e-01
3.520000000000000018e+00 7.273104024713181737e-01
3.540000000000000036e+00 7.233301437580234028e-01
3.560000000000000053e+00 7.193866159211527167e-01
3.580000000000000071e+00 7.154792612869926849e-01
3.600000000000000089e+00 7.116075147119771405e-01
3.620000000000000107e+00 7.077708428617415226e-01
3.640000000000000124e+00 7.039687044711653297e-01
3.660000000000000142e+00 7.002005892560536626e-01
3.680000000000000160e+00 6.964659785848481555e-01
3.700000000000000178e+00 6.927643840117649887e-01
3.720000000000000195e+00 6.890953083696645942e-01
3.740000000000000213e+00 6.854582839138384509e-01
3.760000000000000231e+00 6.818528338429584723e-01
3.780000000000000249e+00 6.782785100430545056e-01
3.800000000000000266e+00 6.747348550457400451e-01
3.820000000000000284e+00 6.712214393622402131e-01
3.839999999999999858e+00 6.677378238855316006e-01
3.859999999999999876e+00 6.642835968046002515e-01
3.879999999999999893e+00 6.608583364593773046e-01
3.899999999999999911e+00 6.574616478257502283e-01
3.919999999999999929e+00 6.540931258295781259e-01
3.939999999999999947e+00 6.507523913932584669e-01
3.959999999999999964e+00 6.474390552174087432e-01
3.979999999999999982e+00 6.441527533800713856e-01
4.000000000000000000e+00 6.408931115920347699e-01
4.020000000000000462e+00 6.376597803400615438e-01
4.040000000000000036e+00 6.344523996240739594e-01
4.060000000000000497e+00 6.312706336361001425e-01
4.080000000000000071e+00 6.281141359849160555e-01
4.099999999999999645e+00 6.249825839026573737e-01
4.120000000000000107e+00 6.218756439648172041e-01
4.139999999999999680e+00 6.187930058167314673e-01
4.160000000000000142e+00 6.157343483941931650e-01
4.179999999999999716e+00 6.126993731622799588e-01
4.200000000000000178e+00 6.096877708441258426e-01
4.219999999999999751e+00 6.066992541648579262e-01
4.240000000000000213e+00 6.037335250933768549e-01
4.259999999999999787e+00 6.007903070843829685e-01
4.280000000000000249e+00 5.978693128403962387e-01
4.299999999999999822e+00 5.949702760451058836e-01
4.320000000000000284e+00 5.920929196501164560e-01
4.339999999999999858e+00 5.892369870930874720e-01
4.360000000000000320e+00 5.864022111161010242e-01
4.379999999999999893e+00 5.835883444623061189e-01
4.400000000000000355e+00 5.807951292300048696e-01
4.419999999999999929e+00 5.780223270417439441e-01
4.440000000000000391e+00 5.752696889406738734e-01
4.459999999999999964e+00 5.725369850262507221e-01
4.480000000000000426e+00 5.698239748966287266e-01
4.500000000000000000e+00 5.671304367453247064e-01
4.520000000000000462e+00 5.644561383558758250e-01
4.540000000000000036e+00 5.618008656540801615e-01
4.560000000000000497e+00 5.591643942582962268e-01
4.580000000000000071e+00 5.565465174820418692e-01
4.600000000000000533e+00 5.539470184458616941e-01
4.620000000000000107e+00 5.513656975252866355e-01
4.639999999999999680e+00 5.488023450273046278e-01
4.660000000000000142e+00 5.462567680788722457e-01
4.679999999999999716e+00 5.437287638735912587e-01
4.700000000000000178e+00 5.412181459961736829e-01
4.719999999999999751e+00 5.387247182420151770e-01
4.740000000000000213e+00 5.362483003731779441e-01
4.759999999999999787e+00 5.337887025161843768e-01
4.780000000000000249e+00 5.313457503452703179e-01
4.799999999999999822e+00 5.289192600607638406e-01
4.820000000000000284e+00 5.265090629955490042e-01
4.839999999999999858e+00 5.241149811790476454e-01
4.860000000000000320e+00 5.217368513630068483e-01
4.879999999999999893e+00 5.193745011731322192e-01
4.900000000000000355e+00 5.170277725504637267e-01
4.919999999999999929e+00 5.146964984954252031e-01
4.940000000000000391e+00 5.123805259212312890e-01
4.959999999999999964e+00 5.100796929920886624e-01
4.980000000000000426e+00 5.077938513852088276e-01
5.000000000000000000e+00 5.055228442276884504e-01
5.020000000000000462e+00 5.032665277638850299e-01
5.040000000000000036e+00 5.010247498923949827e-01
5.060000000000000497e+00 4.987973712356892908e-01
5.080000000000000071e+00 4.965842442814723534e-01
5.100000000000000533e+00 4.943852338516117606e-01
5.120000000000000107e+00 4.922001968490332113e-01
5.139999999999999680e+00 4.900290021231169524e-01
5.160000000000000142e+00 4.878715108261901245e-01
5.179999999999999716e+00 4.857275956726941346e-01
5.200000000000000178e+00 4.835971219061677706e-01
5.219999999999999751e+00 4.814799659496172834e-01
5.240000000000000213e+00 4.793759969868414128e-01
5.259999999999999787e+00 4.772850950015694038e-01
5.280000000000000249e+00 4.752071329737634353e-01
5.299999999999999822e+00 4.731419943052014854e-01
5.320000000000000284e+00 4.710895556344164570e-01
5.339999999999999858e+00 4.690497036465383629e-01
5.360000000000000320e+00 4.670223185072511773e-01
5.379999999999999893e+00 4.650072900547907451e-01
5.400000000000000355e+00 4.630045018564325487e-01
5.419999999999999929e+00 4.610138467806502161e-01
5.440000000000000391e+00 4.590352116763047330e-01
5.459999999999999964e+00 4.570684923230692309e-01
5.480000000000000426e+00 4.551135787366659136e-01
5.500000000000000000e+00 4.531703694957720518e-01
5.520000000000000462e+00 4.512387576732555527e-01
5.540000000000000036e+00 4.493186445378687388e-01
5.560000000000000497e+00 4.474099261146829432e-01
5.580000000000000071e+00 4.455125062599613051e-01
5.600000000000000533e+00 4.436262838505639627e-01
5.620000000000000107e+00 4.417511652304620395e-01
5.639999999999999680e+00 4.398870520321981892e-01
5.660000000000000142e+00 4.380338529936042558e-01
5.679999999999999716e+00 4.361914724108948982e-01
5.700000000000000178e+00 4.343598213242111372e-01
5.719999999999999751e+00 4.325388066053350022e-01
5.740000000000000213e+00 4.307283415107527325e-01
5.759999999999999787e+00 4.289283354034158502e-01
5.780000000000000249e+00 4.271387036720787345e-01
5.799999999999999822e+00 4.253593580899994731e-01
5.820000000000000284e+00 4.235902160993911258e-01
5.839999999999999858e+00 4.218311918063170074e-01
5.860000000000000320e+00 4.200822046291414202e-01
5.879999999999999893e+00 4.183431709324483272e-01
5.900000000000000355e+00 4.166140120384247414e-01
5.919999999999999929e+00 4.148946464989409222e-01
5.940000000000000391e+00 4.131849974688471261e-01
5.959999999999999964e+00 4.114849856189830568e-01
5.980000000000000426e+00 4.097945358704214169e-01
6.000000000000000000e+00 4.081135709474321138e-01
6.020000000000000462e+00 4.064420174717360834e-01
6.040000000000000036e+00 4.047798001581433547e-01
6.060000000000000497e+00 4.031268472679381820e-01
6.080000000000000071e+00 4.014830854461148291e-01
6.100000000000000533e+00 3.998484445330185988e-01
6.120000000000000107e+00 3.982228530458822302e-01
6.140000000000000568e+00 3.966062423479065902e-01
6.160000000000000142e+00 3.949985427729232890e-01
6.179999999999999716e+00 3.933996871511037940e-01
6.200000000000000178e+00 3.918096075794435529e-01
6.219999999999999751e+00 3.902282383033187085e-01
6.240000000000000213e+00 3.886555131315542200e-01
6.259999999999999787e+00 3.870913676730538544e-01
6.280000000000000249e+00 3.855357373991482595e-01
6.299999999999999822e+00 3.839885592345582133e-01
6.320000000000000284e+00 3.824497702657191356e-01
6.339999999999999858e+00 3.809193086853207566e-01
6.360000000000000320e+00 3.793971131493371618e-01
6.379999999999999893e+00 3.778831230744189029e-01
6.400000000000000355e+00 3.763772786422741046e-01
6.419999999999999929e+00 3.748795204491613964e-01
6.440000000000000391e+00 3.733897901603928093e-01
6.459999999999999964e+00 3.719080295112117129e-01
6.480000000000000426e+00 3.704341816100206186e-01
6.500000000000000000e+00 3.689681892898846738e-01
6.520000000000000462e+00 3.675099970633177171e-01
6.540000000000000036e+00 3.660595488236738082e-01
6.560000000000000497e+00 3.646167904500766110e-01
6.580000000000000071e+00 3.631816668579245233e-01
6.600000000000000533e+00 3.617541252568630683e-01
6.620000000000000107e+00 3.603341115496333513e-01
6.640000000000000568e+00 3.589215742416683175e-01
6.660000000000000142e+00 3.575164601874676884e-01
6.679999999999999716e+00 3.561187191548115250e-01
6.700000000000000178e+00 3.547282989178539014e-01
6.719999999999999751e+00 3.533451504745265814e-01
6.740000000000000213e+00 3.519692224854980567e-01
6.759999999999999787e+00 3.506004671478451518e-01
6.780000000000000249e+00 3.492388339790191143e-01
6.799999999999999822e+00 3.478842763453864340e-01
6.820000000000000284e+00 3.465367445902662324e-01
6.839999999999999858e+00 3.451961932205578343e-01
6.860000000000000320e+00 3.438625733778952753e-01
6.879999999999999893e+00 3.425358406819964396e-01
6.900000000000000355e+00 3.412159470439496967e-01
6.919999999999999929e+00 3.399028491695958443e-01
6.940000000000000391e+00 3.385964997139249699e-01
6.959999999999999964e+00 3.372968564431704230e-01
6.980000000000000426e+00 3.360038727292300464e-01
7.000000000000000000e+00 3.347175073739407924e-01
7.020000000000000462e+00 3.334377144423944506e-01
7.040000000000000036e+00 3.321644537481306947e-01
7.060000000000000497e+00 3.308976800241578142e-01
7.080000000000000071e+00 3.296373540726788010e-01
7.100000000000000533e+00 3.283834312725971150e-01
7.120000000000000107e+00 3.271358733925736062e-01
7.140000000000000568e+00 3.258946364336940960e-01
7.160000000000000142e+00 3.246596831096652536e-01
7.179999999999999716e+00 3.234309700232907425e-01
7.200000000000000178e+00 3.222084608126751792e-01
7.219999999999999751e+00 3.209921126600663865e-01
7.240000000000000213e+00 3.197818901080610177e-01
7.259999999999999787e+00 3.185777508993198892e-01
7.280000000000000249e+00 3.173796604617274419e-01
7.299999999999999822e+00 3.161875770773994732e-01
7.320000000000000284e+00 3.150014670409939654e-01
7.339999999999999858e+00 3.138212891563714746e-01
7.360000000000000320e+00 3.126470105671044220e-01
7.379999999999999893e+00 3.114785905790483089e-01
7.400000000000000355e+00 3.103159971674683271e-01
7.419999999999999929e+00 3.091591901237108475e-01
7.440000000000000391e+00 3.080081382381203992e-01
7.459999999999999964e+00 3.068628017688963538e-01
7.480000000000000426e+00 3.057231503054383404e-01
7.500000000000000000e+00 3.045891445574150369e-01
7.520000000000000462e+00 3.034607548978214275e-01
7.540000000000000036e+00 3.023379424701778118e-01
7.560000000000000497e+00 3.012206784161696738e-01
7.580000000000000071e+00 3.001089242988055905e-01
7.600000000000000533e+00 2.990026520140799393e-01
7.620000000000000107e+00 2.979018235278014237e-01
7.640000000000000568e+00 2.968064114764088490e-01
7.660000000000000142e+00 2.957163782151044362e-01
7.679999999999999716e+00 2.946316971073922875e-01
7.700000000000000178e+00 2.935523308820237598e-01
7.719999999999999751e+00 2.924782536166725122e-01
7.740000000000000213e+00 2.914094284011083391e-01
7.759999999999999787e+00 2.903458300147375715e-01
7.780000000000000249e+00 2.892874218932824926e-01
7.799999999999999822e+00 2.882341795058864231e-01
7.820000000000000284e+00 2.871860666225044545e-01
7.839999999999999858e+00 2.861430593904543129e-01
7.860000000000000320e+00 2.851051218995650505e-01
7.879999999999999893e+00 2.840722309641871002e-01
