# Electrodo circular de radio 6 mm y espesor 710.0 um.
# Volumen de simulacion (convencion z,y,x):
# N: 1024 x 1024 x 1024 | voxelSize:  0.02mm x 0.02mm x 0.02mm | FOV:  20.48mm x 20.48mm x 20.48mm
# 
# z [mm]		 delta[ppm]
0.000000000000000000e+00 5.837725015189232813e+00
2.000000000000000042e-02 5.700820508793762009e+00
4.000000000000000083e-02 5.563871443362540248e+00
5.999999999999999778e-02 5.427351219710579322e+00
8.000000000000000167e-02 5.291715324765014827e+00
1.000000000000000056e-01 5.157391755279340018e+00
1.199999999999999956e-01 5.024775905631986284e+00
1.400000000000000133e-01 4.894225921051338801e+00
1.600000000000000033e-01 4.766059905038753541e+00
1.799999999999999933e-01 4.640554058098740775e+00
2.000000000000000111e-01 4.517942291199577909e+00
2.200000000000000011e-01 4.398416748778118723e+00
2.399999999999999911e-01 4.282129394766232444e+00
2.600000000000000089e-01 4.169194239372170152e+00
2.800000000000000266e-01 4.059690193610149045e+00
2.999999999999999889e-01 3.953664238723390234e+00
3.200000000000000067e-01 3.851134842247520673e+00
3.400000000000000244e-01 3.752095412550519260e+00
3.599999999999999867e-01 3.656517721323644832e+00
3.800000000000000044e-01 3.564355179852678024e+00
4.000000000000000222e-01 3.475545913962290179e+00
4.199999999999999845e-01 3.390015599476983610e+00
4.400000000000000022e-01 3.307680017663130023e+00
4.600000000000000200e-01 3.228447347722922522e+00
4.799999999999999822e-01 3.152220162755184685e+00
5.000000000000000000e-01 3.078897183332999887e+00
5.200000000000000178e-01 3.008374754001697404e+00
5.400000000000000355e-01 2.940548119961846840e+00
5.600000000000000533e-01 2.875312462311260475e+00
5.799999999999999600e-01 2.812563783058521949e+00
5.999999999999999778e-01 2.752199588088937610e+00
6.199999999999999956e-01 2.694119467549726643e+00
6.400000000000000133e-01 2.638225510456292167e+00
6.600000000000000311e-01 2.584422658271297024e+00
6.800000000000000488e-01 2.532618922985303556e+00
7.000000000000000666e-01 2.482725578204513894e+00
7.199999999999999734e-01 2.434657238322609718e+00
7.399999999999999911e-01 2.388331937527868654e+00
7.600000000000000089e-01 2.343671114351926654e+00
7.800000000000000266e-01 2.300599616579075413e+00
8.000000000000000444e-01 2.259045623974349937e+00
8.200000000000000622e-01 2.218940606827148443e+00
8.399999999999999689e-01 2.180219210536900931e+00
8.599999999999999867e-01 2.142819187481761034e+00
8.800000000000000044e-01 2.106681260048019144e+00
9.000000000000000222e-01 2.071749039438029349e+00
9.200000000000000400e-01 2.037968878512349757e+00
9.400000000000000577e-01 2.005289786678524866e+00
9.599999999999999645e-01 1.973663280059985148e+00
9.799999999999999822e-01 1.943043298394067975e+00
1.000000000000000000e+00 1.913386057351606828e+00
1.020000000000000018e+00 1.884649971105637034e+00
1.040000000000000036e+00 1.856795509696396840e+00
1.060000000000000053e+00 1.829785129367390573e+00
1.080000000000000071e+00 1.803583136594496761e+00
1.100000000000000089e+00 1.778155627224982105e+00
1.120000000000000107e+00 1.753470357892669806e+00
1.140000000000000124e+00 1.729496694296186243e+00
1.159999999999999920e+00 1.706205490175212613e+00
1.179999999999999938e+00 1.683569044615637056e+00
1.199999999999999956e+00 1.661560988383135262e+00
1.219999999999999973e+00 1.640156249870127203e+00
1.239999999999999991e+00 1.619330948389406499e+00
1.260000000000000009e+00 1.599062368222329500e+00
1.280000000000000027e+00 1.579328858342139430e+00
1.300000000000000044e+00 1.560109813947761381e+00
1.320000000000000062e+00 1.541385582053478087e+00
1.340000000000000080e+00 1.523137449868366078e+00
1.360000000000000098e+00 1.505347555664709125e+00
1.380000000000000115e+00 1.487998883372486203e+00
1.400000000000000133e+00 1.471075178171868947e+00
1.419999999999999929e+00 1.454560946700411472e+00
1.439999999999999947e+00 1.438441376833705210e+00
1.459999999999999964e+00 1.422702342942881559e+00
1.479999999999999982e+00 1.407330329382269207e+00
1.500000000000000000e+00 1.392312440279319219e+00
1.520000000000000018e+00 1.377636326279549905e+00
1.540000000000000036e+00 1.363290198397523412e+00
1.560000000000000053e+00 1.349262757626503495e+00
1.580000000000000071e+00 1.335543212424161519e+00
1.600000000000000089e+00 1.322121210825699000e+00
1.620000000000000107e+00 1.308986861181179018e+00
1.640000000000000124e+00 1.296130666462733894e+00
1.660000000000000142e+00 1.283543547910161120e+00
1.679999999999999938e+00 1.271216781249232541e+00
1.699999999999999956e+00 1.259142022938842809e+00
1.719999999999999973e+00 1.247311248061934830e+00
1.739999999999999991e+00 1.235716778900289192e+00
1.760000000000000009e+00 1.224351224279950134e+00
1.780000000000000027e+00 1.213207510229488806e+00
1.800000000000000044e+00 1.202278820598934317e+00
1.820000000000000062e+00 1.191558629583581830e+00
1.840000000000000080e+00 1.181040643450149030e+00
1.860000000000000098e+00 1.170718834731719449e+00
1.880000000000000115e+00 1.160587384925553689e+00
1.900000000000000133e+00 1.150640720185375665e+00
1.919999999999999929e+00 1.140873454865146241e+00
1.939999999999999947e+00 1.131280428553311124e+00
1.959999999999999964e+00 1.121856650362282659e+00
1.979999999999999982e+00 1.112597337165245781e+00
2.000000000000000000e+00 1.103497858537158649e+00
2.020000000000000018e+00 1.094553776069013828e+00
2.040000000000000036e+00 1.085760788887349726e+00
2.060000000000000053e+00 1.077114773933273373e+00
2.080000000000000071e+00 1.068611731990502411e+00
2.100000000000000089e+00 1.060247828827517447e+00
2.120000000000000107e+00 1.052019341682069120e+00
2.140000000000000124e+00 1.043922701174424317e+00
2.160000000000000142e+00 1.035954438196952765e+00
2.180000000000000160e+00 1.028111226515027399e+00
2.200000000000000178e+00 1.020389830025641320e+00
2.220000000000000195e+00 1.012787145969960889e+00
2.240000000000000213e+00 1.005300152523846746e+00
2.260000000000000231e+00 9.979259525527590657e-01
2.280000000000000249e+00 9.906617215103488139e-01
2.300000000000000266e+00 9.835047516722414951e-01
2.319999999999999840e+00 9.764524003164580801e-01
2.339999999999999858e+00 9.695021343777918688e-01
2.359999999999999876e+00 9.626514788956379576e-01
2.379999999999999893e+00 9.558980620352193203e-01
2.399999999999999911e+00 9.492395637849290191e-01
2.419999999999999929e+00 9.426737612948121736e-01
2.439999999999999947e+00 9.361984778161122067e-01
2.459999999999999964e+00 9.298116283109876257e-01
2.479999999999999982e+00 9.235111686227494010e-01
2.500000000000000000e+00 9.172951413140363330e-01
2.520000000000000018e+00 9.111616250659088090e-01
2.540000000000000036e+00 9.051087807045943290e-01
2.560000000000000053e+00 8.991348008227443289e-01
2.580000000000000071e+00 8.932379559574660233e-01
2.600000000000000089e+00 8.874165444360397892e-01
2.620000000000000107e+00 8.816689386702628584e-01
2.640000000000000124e+00 8.759935352236196682e-01
2.660000000000000142e+00 8.703888011890341669e-01
2.680000000000000160e+00 8.648532244829669757e-01
2.700000000000000178e+00 8.593853602755505694e-01
2.720000000000000195e+00 8.539837815113725528e-01
2.740000000000000213e+00 8.486471253627067002e-01
2.760000000000000231e+00 8.433740439847849935e-01
2.780000000000000249e+00 8.381632509643746065e-01
2.800000000000000266e+00 8.330134723113677975e-01
2.819999999999999840e+00 8.279234928763450352e-01
2.839999999999999858e+00 8.228921075880774039e-01
2.859999999999999876e+00 8.179181678150085899e-01
2.879999999999999893e+00 8.130005328519960273e-01
2.899999999999999911e+00 8.081381162018570485e-01
2.919999999999999929e+00 8.033298373222080846e-01
2.939999999999999947e+00 7.985746678042568991e-01
2.959999999999999964e+00 7.938715833841791802e-01
2.979999999999999982e+00 7.892196099973721735e-01
3.000000000000000000e+00 7.846177760661308120e-01
3.020000000000000018e+00 7.800651584085086521e-01
3.040000000000000036e+00 7.755608348074567449e-01
3.060000000000000053e+00 7.711039297542796600e-01
3.080000000000000071e+00 7.666935673116506145e-01
3.100000000000000089e+00 7.623289166724530608e-01
3.120000000000000107e+00 7.580091453223191111e-01
3.140000000000000124e+00 7.537334643953996771e-01
3.160000000000000142e+00 7.495010821492293918e-01
3.180000000000000160e+00 7.453112490996814943e-01
3.200000000000000178e+00 7.411632118140623060e-01
3.220000000000000195e+00 7.370562578081594207e-01
3.240000000000000213e+00 7.329896696705857639e-01
3.260000000000000231e+00 7.289627697054703592e-01
3.280000000000000249e+00 7.249748743940511719e-01
3.300000000000000266e+00 7.210253387671287095e-01
3.320000000000000284e+00 7.171135112170108350e-01
3.339999999999999858e+00 7.132387775844317712e-01
3.359999999999999876e+00 7.094005163268093384e-01
3.379999999999999893e+00 7.055981423048398593e-01
3.399999999999999911e+00 7.018310623201517995e-01
3.419999999999999929e+00 6.980987185873190892e-01
3.439999999999999947e+00 6.944005446467257370e-01
3.459999999999999964e+00 6.907360085082109302e-01
3.479999999999999982e+00 6.871045689521029232e-01
3.500000000000000000e+00 6.835057183312106543e-01
3.520000000000000018e+00 6.799389392656020048e-01
3.540000000000000036e+00 6.764037470900740034e-01
3.560000000000000053e+00 6.728996469554605619e-01
3.580000000000000071e+00 6.694261759091651998e-01
3.600000000000000089e+00 6.659828604082859149e-01
3.620000000000000107e+00 6.625692580211979266e-01
3.640000000000000124e+00 6.591849153650357618e-01
3.660000000000000142e+00 6.558294094167554933e-01
3.680000000000000160e+00 6.525023058798934406e-01
3.700000000000000178e+00 6.492032000938785519e-01
3.720000000000000195e+00 6.459316758423689908e-01
3.740000000000000213e+00 6.426873458500000913e-01
3.760000000000000231e+00 6.394698110368192134e-01
3.780000000000000249e+00 6.362787005920063077e-01
3.800000000000000266e+00 6.331136316863921198e-01
3.820000000000000284e+00 6.299742491130621014e-01
3.839999999999999858e+00 6.268601854620770020e-01
3.859999999999999876e+00 6.237711003181893865e-01
3.879999999999999893e+00 6.207066409094216253e-01
3.899999999999999911e+00 6.176664808525161865e-01
3.919999999999999929e+00 6.146502812790213266e-01
3.939999999999999947e+00 6.116577291193874277e-01
3.959999999999999964e+00 6.086884987178944328e-01
3.979999999999999982e+00 6.057422896466250206e-01
4.000000000000000000e+00 6.028187888124705296e-01
4.020000000000000462e+00 5.999177077925168522e-01
4.040000000000000036e+00 5.970387454440849728e-01
4.060000000000000497e+00 5.941816247534322804e-01
4.080000000000000071e+00 5.913460559515606452e-01
4.099999999999999645e+00 5.885317728683813199e-01
4.120000000000000107e+00 5.857384965649196085e-01
4.139999999999999680e+00 5.829659711853950599e-01
4.160000000000000142e+00 5.802139281081202249e-01
4.179999999999999716e+00 5.774821212882084165e-01
4.200000000000000178e+00 5.747702919374308994e-01
4.219999999999999751e+00 5.720782033506093267e-01
4.240000000000000213e+00 5.694056061162109383e-01
4.259999999999999787e+00 5.667522724196902839e-01
4.280000000000000249e+00 5.641179617947787994e-01
4.299999999999999822e+00 5.615024548973410745e-01
4.320000000000000284e+00 5.589055197986635415e-01
4.339999999999999858e+00 5.563269452236223600e-01
4.360000000000000320e+00 5.537665073955908568e-01
4.379999999999999893e+00 5.512240027330094216e-01
4.400000000000000355e+00 5.486992152467233819e-01
4.419999999999999929e+00 5.461919486892545805e-01
4.440000000000000391e+00 5.437019945138691357e-01
4.459999999999999964e+00 5.412291634711245969e-01
4.480000000000000426e+00 5.387732541300357392e-01
4.500000000000000000e+00 5.363340839166437224e-01
4.520000000000000462e+00 5.339114582062747250e-01
4.540000000000000036e+00 5.315052007991860616e-01
4.560000000000000497e+00 5.291151235837949773e-01
4.580000000000000071e+00 5.267410564446280974e-01
4.600000000000000533e+00 5.243828175052133167e-01
4.620000000000000107e+00 5.220402424638094230e-01
4.639999999999999680e+00 5.197131554154107436e-01
4.660000000000000142e+00 5.174013976109070878e-01
4.679999999999999716e+00 5.151047988665996558e-01
4.700000000000000178e+00 5.128232057427072332e-01
4.719999999999999751e+00 5.105564535393845027e-01
4.740000000000000213e+00 5.083043938906347536e-01
4.759999999999999787e+00 5.060668673549802987e-01
4.780000000000000249e+00 5.038437304210695578e-01
4.799999999999999822e+00 5.016348286915741639e-01
4.820000000000000284e+00 4.994400232969495312e-01
4.839999999999999858e+00 4.972591646804320753e-01
4.860000000000000320e+00 4.950921184166374167e-01
4.879999999999999893e+00 4.929387395958089724e-01
4.900000000000000355e+00 4.907988980440698423e-01
4.919999999999999929e+00 4.886724533145769822e-01
4.940000000000000391e+00 4.865592793064614230e-01
4.959999999999999964e+00 4.844592398606362704e-01
4.980000000000000426e+00 4.823722127745704302e-01
5.000000000000000000e+00 4.802980660102089128e-01
5.020000000000000462e+00 4.782366811019554964e-01
5.040000000000000036e+00 4.761879299740315874e-01
5.060000000000000497e+00 4.741516977391665444e-01
5.080000000000000071e+00 4.721278601326501234e-01
5.100000000000000533e+00 4.701163056994011047e-01
5.120000000000000107e+00 4.681169138416900743e-01
5.139999999999999680e+00 4.661295763923692381e-01
5.160000000000000142e+00 4.641541762833485962e-01
5.179999999999999716e+00 4.621906085029600098e-01
5.200000000000000178e+00 4.602387593817897082e-01
5.219999999999999751e+00 4.582985269322474298e-01
5.240000000000000213e+00 4.563698007586799998e-01
5.259999999999999787e+00 4.544524817773889502e-01
5.280000000000000249e+00 4.525464627472836621e-01
5.299999999999999822e+00 4.506516473686812962e-01
5.320000000000000284e+00 4.487679314412804099e-01
5.339999999999999858e+00 4.468952213402569984e-01
5.360000000000000320e+00 4.450334157974676352e-01
5.379999999999999893e+00 4.431824237534097155e-01
5.400000000000000355e+00 4.413421467683491528e-01
5.419999999999999929e+00 4.395124962488632936e-01
5.440000000000000391e+00 4.376933764844934127e-01
5.459999999999999964e+00 4.358847012476704808e-01
5.480000000000000426e+00 4.340863774624723614e-01
5.500000000000000000e+00 4.322983211768804401e-01
5.520000000000000462e+00 4.305204418589304027e-01
5.540000000000000036e+00 4.287526577403057426e-01
5.560000000000000497e+00 4.269948807463853635e-01
5.580000000000000071e+00 4.252470312103159289e-01
5.600000000000000533e+00 4.235090234319616176e-01
5.620000000000000107e+00 4.217807797616309751e-01
5.639999999999999680e+00 4.200622167943902641e-01
5.660000000000000142e+00 4.183532588227656945e-01
5.679999999999999716e+00 4.166538246611334873e-01
5.700000000000000178e+00 4.149638404667510549e-01
5.719999999999999751e+00 4.132832272006514707e-01
5.740000000000000213e+00 4.116119128164722474e-01
5.759999999999999787e+00 4.099498203523149198e-01
5.780000000000000249e+00 4.082968794868718776e-01
5.799999999999999822e+00 4.066530152686549382e-01
5.820000000000000284e+00 4.050181590390414255e-01
5.839999999999999858e+00 4.033922377930714842e-01
5.860000000000000320e+00 4.017751844690498619e-01
5.879999999999999893e+00 4.001669279473256680e-01
5.900000000000000355e+00 3.985674027061818503e-01
5.919999999999999929e+00 3.969765394525758273e-01
5.940000000000000391e+00 3.953942741440564235e-01
5.959999999999999964e+00 3.938205392578986719e-01
5.980000000000000426e+00 3.922552721788932217e-01
6.000000000000000000e+00 3.906984071006367465e-01
6.020000000000000462e+00 3.891498827790224047e-01
6.040000000000000036e+00 3.876096350721574546e-01
6.060000000000000497e+00 3.860776040594954273e-01
6.080000000000000071e+00 3.845537272139344931e-01
6.100000000000000533e+00 3.830379458864939246e-01
6.120000000000000107e+00 3.815301991171303198e-01
6.140000000000000568e+00 3.800304294849718989e-01
6.160000000000000142e+00 3.785385775512005724e-01
6.179999999999999716e+00 3.770545870748241990e-01
6.200000000000000178e+00 3.755784000942375411e-01
6.219999999999999751e+00 3.741099615085868857e-01
6.240000000000000213e+00 3.726492147911960595e-01
6.259999999999999787e+00 3.711961059365423976e-01
6.280000000000000249e+00 3.697505798122515119e-01
6.299999999999999822e+00 3.683125834717918545e-01
6.320000000000000284e+00 3.668820631380468877e-01
6.339999999999999858e+00 3.654589668817734838e-01
6.360000000000000320e+00 3.640432422435779802e-01
6.379999999999999893e+00 3.626348382782741409e-01
6.400000000000000355e+00 3.612337038081074314e-01
6.419999999999999929e+00 3.598397888330714944e-01
6.440000000000000391e+00 3.584530434223451856e-01
6.459999999999999964e+00 3.570734184907139452e-01
6.480000000000000426e+00 3.557008653209134397e-01
6.500000000000000000e+00 3.543353357062163922e-01
6.520000000000000462e+00 3.529767821108004133e-01
6.540000000000000036e+00 3.516251571786387364e-01
6.560000000000000497e+00 3.502804145244516332e-01
6.580000000000000071e+00 3.489425076089513467e-01
6.600000000000000533e+00 3.476113911676650958e-01
6.620000000000000107e+00 3.462870194526453393e-01
6.640000000000000568e+00 3.449693482916005860e-01
6.660000000000000142e+00 3.436583326960919726e-01
6.679999999999999716e+00 3.423539295584483444e-01
6.700000000000000178e+00 3.410560946265353000e-01
6.719999999999999751e+00 3.397647858307651925e-01
6.740000000000000213e+00 3.384799596254242648e-01
6.759999999999999787e+00 3.372015749534469919e-01
6.780000000000000249e+00 3.359295889543461588e-01
6.799999999999999822e+00 3.346639615589642180e-01
6.820000000000000284e+00 3.334046505639212121e-01
6.839999999999999858e+00 3.321516168642565936e-01
6.860000000000000320e+00 3.309048188943533586e-01
6.879999999999999893e+00 3.296642184905916317e-01
6.900000000000000355e+00 3.284297746986223343e-01
6.919999999999999929e+00 3.272014502741475983e-01
6.940000000000000391e+00 3.259792048564468803e-01
6.959999999999999964e+00 3.247630020993181876e-01
6.980000000000000426e+00 3.235528022106388124e-01
7.000000000000000000e+00 3.223485697218512191e-01
7.020000000000000462e+00 3.211502653933629436e-01
7.040000000000000036e+00 3.199578546145389057e-01
7.060000000000000497e+00 3.187712986746249477e-01
7.080000000000000071e+00 3.175905638018928778e-01
7.100000000000000533e+00 3.164156117998150886e-01
7.120000000000000107e+00 3.152464097172390511e-01
7.140000000000000568e+00 3.140829198493843566e-01
7.160000000000000142e+00 3.129251100479963910e-01
7.179999999999999716e+00 3.117729430867718365e-01
7.200000000000000178e+00 3.106263876033029114e-01
7.219999999999999751e+00 3.094854068283910964e-01
7.240000000000000213e+00 3.083499701690352035e-01
7.259999999999999787e+00 3.072200413011121900e-01
7.280000000000000249e+00 3.060955903851641513e-01
7.299999999999999822e+00 3.049765815217748144e-01
7.320000000000000284e+00 3.038629856097313509e-01
7.339999999999999858e+00 3.027547671634465698e-01
7.360000000000000320e+00 3.016518978051944133e-01
7.379999999999999893e+00 3.005543424437617239e-01
7.400000000000000355e+00 2.994620734106736570e-01
7.419999999999999929e+00 2.983750559992711104e-01
7.440000000000000391e+00 2.972932632365957173e-01
7.459999999999999964e+00 2.962166607819181063e-01
7.480000000000000426e+00 2.951452223445463208e-01
7.500000000000000000e+00 2.940789139408500064e-01
7.520000000000000462e+00 2.930177099496164006e-01
7.540000000000000036e+00 2.919615767264445716e-01
7.560000000000000497e+00 2.909104893072723130e-01
7.580000000000000071e+00 2.898644143790045091e-01
7.600000000000000533e+00 2.888233276228285851e-01
7.620000000000000107e+00 2.877871960397645479e-01
7.640000000000000568e+00 2.867559959447746887e-01
7.660000000000000142e+00 2.857296946459297327e-01
7.679999999999999716e+00 2.847082690808925287e-01
7.700000000000000178e+00 2.836916868481951237e-01
7.719999999999999751e+00 2.826799254975238540e-01
7.740000000000000213e+00 2.816729529116027142e-01
7.759999999999999787e+00 2.806707472418418226e-01
7.780000000000000249e+00 2.796732766391165081e-01
7.799999999999999822e+00 2.786805198466251188e-01
7.820000000000000284e+00 2.776924452778661290e-01
7.839999999999999858e+00 2.767090322582464457e-01
7.860000000000000320e+00 2.757302494483355737e-01
7.879999999999999893e+00 2.747560767465156983e-01
