# Electrodo circular de radio 6 mm y espesor 710.0 um.
# Volumen de simulacion (convencion z,y,x):
# N: 1024 x 1024 x 1024 | voxelSize:  0.02mm x 0.02mm x 0.02mm | FOV:  20.48mm x 20.48mm x 20.48mm
# 
# z [mm]		 delta[ppm]
0.000000000000000000e+00 3.712538135903439951e+00
2.000000000000000042e-02 3.693964178766231399e+00
4.000000000000000083e-02 3.674992553348730873e+00
5.999999999999999778e-02 3.655639289629637023e+00
8.000000000000000167e-02 3.635920638718834308e+00
1.000000000000000056e-01 3.615852923806052832e+00
1.199999999999999956e-01 3.595452490480015140e+00
1.400000000000000133e-01 3.574735687888482172e+00
1.600000000000000033e-01 3.553718833444682090e+00
1.799999999999999933e-01 3.532418194958754309e+00
2.000000000000000111e-01 3.510849956070913436e+00
2.200000000000000011e-01 3.489030201110168594e+00
2.399999999999999911e-01 3.466974880681238602e+00
2.600000000000000089e-01 3.444699799692273690e+00
2.800000000000000266e-01 3.422220583904179492e+00
2.999999999999999889e-01 3.399552671008906568e+00
3.200000000000000067e-01 3.376711278427765084e+00
3.400000000000000244e-01 3.353711397457472376e+00
3.599999999999999867e-01 3.330567762629973227e+00
3.800000000000000044e-01 3.307294848927287756e+00
4.000000000000000222e-01 3.283906842815125682e+00
4.199999999999999845e-01 3.260417642530043292e+00
4.400000000000000022e-01 3.236840830896222876e+00
4.600000000000000200e-01 3.213189678650653303e+00
4.799999999999999822e-01 3.189477119042574138e+00
5.000000000000000000e-01 3.165715754135795201e+00
5.200000000000000178e-01 3.141917831178519194e+00
5.400000000000000355e-01 3.118095251785123700e+00
5.600000000000000533e-01 3.094259549992129710e+00
5.799999999999999600e-01 3.070421904194712948e+00
5.999999999999999778e-01 3.046593116793818279e+00
6.199999999999999956e-01 3.022783628734686534e+00
6.400000000000000133e-01 2.999003500602690941e+00
6.600000000000000311e-01 2.975262429591963631e+00
6.800000000000000488e-01 2.951569731902926375e+00
7.000000000000000666e-01 2.927934361952457820e+00
7.199999999999999734e-01 2.904364895897450172e+00
7.399999999999999911e-01 2.880869552888945861e+00
7.600000000000000089e-01 2.857456179549188846e+00
7.800000000000000266e-01 2.834132273066455099e+00
8.000000000000000444e-01 2.810904966439352837e+00
8.200000000000000622e-01 2.787781053209446469e+00
8.399999999999999689e-01 2.764766973296855390e+00
8.599999999999999867e-01 2.741868839171138994e+00
8.800000000000000044e-01 2.719092422099587569e+00
9.000000000000000222e-01 2.696443179564573800e+00
9.200000000000000400e-01 2.673926241761542144e+00
9.400000000000000577e-01 2.651546440080776001e+00
9.599999999999999645e-01 2.629308293696957843e+00
9.799999999999999822e-01 2.607216038945794789e+00
1.000000000000000000e+00 2.585273615865677499e+00
1.020000000000000018e+00 2.563484698313065024e+00
1.040000000000000036e+00 2.541852680325916491e+00
1.060000000000000053e+00 2.520380706836599316e+00
1.080000000000000071e+00 2.499071659746292529e+00
1.100000000000000089e+00 2.477928189108992374e+00
1.120000000000000107e+00 2.456952698817072456e+00
1.140000000000000124e+00 2.436147378145059328e+00
1.159999999999999920e+00 2.415514186965322274e+00
1.179999999999999938e+00 2.395054887554722178e+00
1.199999999999999956e+00 2.374771029270297262e+00
1.219999999999999973e+00 2.354663980535930623e+00
1.239999999999999991e+00 2.334734912924744332e+00
1.260000000000000009e+00 2.314984833255830488e+00
1.280000000000000027e+00 2.295414567039772979e+00
1.300000000000000044e+00 2.276024790627580785e+00
1.320000000000000062e+00 2.256816013990109226e+00
1.340000000000000080e+00 2.237788612872073202e+00
1.360000000000000098e+00 2.218942810884056982e+00
1.380000000000000115e+00 2.200278711624304329e+00
1.400000000000000133e+00 2.181796280073629024e+00
1.419999999999999929e+00 2.163495374656135617e+00
1.439999999999999947e+00 2.145375727933281684e+00
1.459999999999999964e+00 2.127436978582166294e+00
1.479999999999999982e+00 2.109678651394075732e+00
1.500000000000000000e+00 2.092100189155212231e+00
1.520000000000000018e+00 2.074700931959103656e+00
1.540000000000000036e+00 2.057480148980039392e+00
1.560000000000000053e+00 2.040437017115486640e+00
1.580000000000000071e+00 2.023570652646838219e+00
1.600000000000000089e+00 2.006880089230380637e+00
1.620000000000000107e+00 1.990364309443556134e+00
1.640000000000000124e+00 1.974022222147879146e+00
1.660000000000000142e+00 1.957852693921665388e+00
1.679999999999999938e+00 1.941854525819370236e+00
1.699999999999999956e+00 1.926026484693898810e+00
1.719999999999999973e+00 1.910367279380177141e+00
1.739999999999999991e+00 1.894875591911655777e+00
1.760000000000000009e+00 1.879550053156004763e+00
1.780000000000000027e+00 1.864389273931479574e+00
1.800000000000000044e+00 1.849391820124798524e+00
1.820000000000000062e+00 1.834556243713674206e+00
1.840000000000000080e+00 1.819881057396233182e+00
1.860000000000000098e+00 1.805364765526294546e+00
1.880000000000000115e+00 1.791005838285042451e+00
1.900000000000000133e+00 1.776802742535594337e+00
1.919999999999999929e+00 1.762753915566441121e+00
1.939999999999999947e+00 1.748857795871646692e+00
1.959999999999999964e+00 1.735112796496296017e+00
1.979999999999999982e+00 1.721517335748167676e+00
2.000000000000000000e+00 1.708069810174009939e+00
2.020000000000000018e+00 1.694768625207976775e+00
2.040000000000000036e+00 1.681612167807834402e+00
2.060000000000000053e+00 1.668598837044748873e+00
2.080000000000000071e+00 1.655727016426936427e+00
2.100000000000000089e+00 1.642995104434641140e+00
2.120000000000000107e+00 1.630401486558815893e+00
2.140000000000000124e+00 1.617944565784288358e+00
2.160000000000000142e+00 1.605622734369390070e+00
2.180000000000000160e+00 1.593434404279501448e+00
2.200000000000000178e+00 1.581377978733492728e+00
2.220000000000000195e+00 1.569451882588939640e+00
2.240000000000000213e+00 1.557654533679618591e+00
2.260000000000000231e+00 1.545984373152875735e+00
2.280000000000000249e+00 1.534439836622245368e+00
2.300000000000000266e+00 1.523019384456622882e+00
2.319999999999999840e+00 1.511721472770528152e+00
2.339999999999999858e+00 1.500544583663927511e+00
2.359999999999999876e+00 1.489487196072516006e+00
2.379999999999999893e+00 1.478547815956240852e+00
2.399999999999999911e+00 1.467724947030506488e+00
2.419999999999999929e+00 1.457017120900742979e+00
2.439999999999999947e+00 1.446422867695291270e+00
2.459999999999999964e+00 1.435940746142638114e+00
2.479999999999999982e+00 1.425569314125388454e+00
2.500000000000000000e+00 1.415307158696162526e+00
2.520000000000000018e+00 1.405152866571933057e+00
2.540000000000000036e+00 1.395105054083959573e+00
2.560000000000000053e+00 1.385162337630528206e+00
2.580000000000000071e+00 1.375323363555744471e+00
2.600000000000000089e+00 1.365586778578623539e+00
2.620000000000000107e+00 1.355951259595054692e+00
2.640000000000000124e+00 1.346415484100041526e+00
2.660000000000000142e+00 1.336978159906669905e+00
2.680000000000000160e+00 1.327637995578281549e+00
2.700000000000000178e+00 1.318393730057827895e+00
2.720000000000000195e+00 1.309244103125705605e+00
2.740000000000000213e+00 1.300187884932509697e+00
2.760000000000000231e+00 1.291223846498259942e+00
2.780000000000000249e+00 1.282350789141199598e+00
2.800000000000000266e+00 1.273567515033189990e+00
2.819999999999999840e+00 1.264872856516889410e+00
2.839999999999999858e+00 1.256265646732129149e+00
2.859999999999999876e+00 1.247744748813532034e+00
2.879999999999999893e+00 1.239309026601798758e+00
2.899999999999999911e+00 1.230957373713572167e+00
2.919999999999999929e+00 1.222688684351661115e+00
2.939999999999999947e+00 1.214501882238706809e+00
2.959999999999999964e+00 1.206395891539553400e+00
2.979999999999999982e+00 1.198369665650135696e+00
3.000000000000000000e+00 1.190422158245277418e+00
3.020000000000000018e+00 1.182552351914040178e+00
3.040000000000000036e+00 1.174759229345504030e+00
3.060000000000000053e+00 1.167041801801666834e+00
3.080000000000000071e+00 1.159399080453899389e+00
3.100000000000000089e+00 1.151830104684354428e+00
3.120000000000000107e+00 1.144333913585095175e+00
3.140000000000000124e+00 1.136909574078901253e+00
3.160000000000000142e+00 1.129556152593178098e+00
3.180000000000000160e+00 1.122272742990981120e+00
3.200000000000000178e+00 1.115058438431183907e+00
3.220000000000000195e+00 1.107912359100473587e+00
3.240000000000000213e+00 1.100833624271395861e+00
3.260000000000000231e+00 1.093821379826036999e+00
3.280000000000000249e+00 1.086874770522981093e+00
3.300000000000000266e+00 1.079992967303357254e+00
3.320000000000000284e+00 1.073175139777883702e+00
3.339999999999999858e+00 1.066420483305961175e+00
3.359999999999999876e+00 1.059728191713424028e+00
3.379999999999999893e+00 1.053097484135343986e+00
3.399999999999999911e+00 1.046527577975272516e+00
3.419999999999999929e+00 1.040017715502436380e+00
3.439999999999999947e+00 1.033567137062715524e+00
3.459999999999999964e+00 1.027175107420945421e+00
3.479999999999999982e+00 1.020840889234025495e+00
3.500000000000000000e+00 1.014563769129077420e+00
3.520000000000000018e+00 1.008343031448577065e+00
3.540000000000000036e+00 1.002177984055153681e+00
3.560000000000000053e+00 9.960679323588168543e-01
3.580000000000000071e+00 9.900122048392070440e-01
3.600000000000000089e+00 9.840101273645064373e-01
3.620000000000000107e+00 9.780610484220343404e-01
3.640000000000000124e+00 9.721643137385730382e-01
3.660000000000000142e+00 9.663192912102676058e-01
3.680000000000000160e+00 9.605253458336390215e-01
3.700000000000000178e+00 9.547818643257852678e-01
3.720000000000000195e+00 9.490882303755532323e-01
3.740000000000000213e+00 9.434438489451293375e-01
3.760000000000000231e+00 9.378481218503427197e-01
3.780000000000000249e+00 9.323004717348096770e-01
3.800000000000000266e+00 9.268003179885523357e-01
3.820000000000000284e+00 9.213471003859237118e-01
3.839999999999999858e+00 9.159402553512713263e-01
3.859999999999999876e+00 9.105792392519693745e-01
3.879999999999999893e+00 9.052635050200180666e-01
3.899999999999999911e+00 8.999925250916025465e-01
3.919999999999999929e+00 8.947657683930909656e-01
3.939999999999999947e+00 8.895827229186218377e-01
3.959999999999999964e+00 8.844428730891520374e-01
3.979999999999999982e+00 8.793457219596400032e-01
4.000000000000000000e+00 8.742907689593937270e-01
4.020000000000000462e+00 8.692775317205245766e-01
4.040000000000000036e+00 8.643055242079752398e-01
4.060000000000000497e+00 8.593742781610399506e-01
4.080000000000000071e+00 8.544833216210594440e-01
4.099999999999999645e+00 8.496321999778828626e-01
4.120000000000000107e+00 8.448204549033805355e-01
4.139999999999999680e+00 8.400476449947975599e-01
4.160000000000000142e+00 8.353133251218921584e-01
4.179999999999999716e+00 8.306170666592298524e-01
4.200000000000000178e+00 8.259584372548532949e-01
4.219999999999999751e+00 8.213370206437017318e-01
4.240000000000000213e+00 8.167523968453644923e-01
4.259999999999999787e+00 8.122041615508668322e-01
4.280000000000000249e+00 8.076919067572362332e-01
4.299999999999999822e+00 8.032152397199930904e-01
4.320000000000000284e+00 7.987737640318779420e-01
4.339999999999999858e+00 7.943670981334970405e-01
4.360000000000000320e+00 7.899948568437155094e-01
4.379999999999999893e+00 7.856566694210095347e-01
4.400000000000000355e+00 7.813521615526469732e-01
4.419999999999999929e+00 7.770809729593913806e-01
4.440000000000000391e+00 7.728427398507820012e-01
4.459999999999999964e+00 7.686371120659171163e-01
4.480000000000000426e+00 7.644637360017938477e-01
4.500000000000000000e+00 7.603222712829700303e-01
4.520000000000000462e+00 7.562123741700890189e-01
4.540000000000000036e+00 7.521337137513516291e-01
4.560000000000000497e+00 7.480859558379693297e-01
4.580000000000000071e+00 7.440687786704557327e-01
4.600000000000000533e+00 7.400818573079430696e-01
4.620000000000000107e+00 7.361248788423845335e-01
4.639999999999999680e+00 7.321975272883263219e-01
4.660000000000000142e+00 7.282994982982013976e-01
4.679999999999999716e+00 7.244304845593031450e-01
4.700000000000000178e+00 7.205901900034514806e-01
4.719999999999999751e+00 7.167783157175787734e-01
4.740000000000000213e+00 7.129945736411211765e-01
4.759999999999999787e+00 7.092386729968098713e-01
4.780000000000000249e+00 7.055103334692143235e-01
4.799999999999999822e+00 7.018092721619998420e-01
4.820000000000000284e+00 6.981352162511498260e-01
4.839999999999999858e+00 6.944878904751011772e-01
4.860000000000000320e+00 6.908670292562516524e-01
4.879999999999999893e+00 6.872723647300749139e-01
4.900000000000000355e+00 6.837036383285826080e-01
4.919999999999999929e+00 6.801605893547035819e-01
4.940000000000000391e+00 6.766429660214514641e-01
4.959999999999999964e+00 6.731505145775216192e-01
4.980000000000000426e+00 6.696829897959736266e-01
5.000000000000000000e+00 6.662401446572066011e-01
5.020000000000000462e+00 6.628217402810524517e-01
5.040000000000000036e+00 6.594275361729240448e-01
5.060000000000000497e+00 6.560572995932973939e-01
5.080000000000000071e+00 6.527107963730497397e-01
5.100000000000000533e+00 6.493877997143436831e-01
5.120000000000000107e+00 6.460880815808538458e-01
5.139999999999999680e+00 6.428114209241430066e-01
5.160000000000000142e+00 6.395575956546762919e-01
5.179999999999999716e+00 6.363263902878315559e-01
5.200000000000000178e+00 6.331175885012823024e-01
5.219999999999999751e+00 6.299309801948487220e-01
5.240000000000000213e+00 6.267663546400401575e-01
5.259999999999999787e+00 6.236235069480037252e-01
5.280000000000000249e+00 6.205022318166976136e-01
5.299999999999999822e+00 6.174023294012610519e-01
5.320000000000000284e+00 6.143235996644997865e-01
5.339999999999999858e+00 6.112658476440538946e-01
5.360000000000000320e+00 6.082288784115571501e-01
5.379999999999999893e+00 6.052125017310172606e-01
5.400000000000000355e+00 6.022165276322718475e-01
5.419999999999999929e+00 5.992407704550157810e-01
5.440000000000000391e+00 5.962850450418564208e-01
5.459999999999999964e+00 5.933491701624824533e-01
5.480000000000000426e+00 5.904329653318503013e-01
5.500000000000000000e+00 5.875362536090354970e-01
5.520000000000000462e+00 5.846588590457578727e-01
5.540000000000000036e+00 5.818006088544933618e-01
5.560000000000000497e+00 5.789613314928091503e-01
5.580000000000000071e+00 5.761408581953384456e-01
5.600000000000000533e+00 5.733390216990784660e-01
5.620000000000000107e+00 5.705556571338586958e-01
5.639999999999999680e+00 5.677906013940312580e-01
5.660000000000000142e+00 5.650436933820904839e-01
5.679999999999999716e+00 5.623147740318490406e-01
5.700000000000000178e+00 5.596036858999000607e-01
5.719999999999999751e+00 5.569102738456663815e-01
5.740000000000000213e+00 5.542343839654014781e-01
5.759999999999999787e+00 5.515758649341758746e-01
5.780000000000000249e+00 5.489345662771407675e-01
5.799999999999999822e+00 5.463103403788079904e-01
5.820000000000000284e+00 5.437030400863187563e-01
5.839999999999999858e+00 5.411125213910359388e-01
5.860000000000000320e+00 5.385386403585740167e-01
5.879999999999999893e+00 5.359812564880600538e-01
5.900000000000000355e+00 5.334402289636619443e-01
5.919999999999999929e+00 5.309154206965395195e-01
5.940000000000000391e+00 5.284066938926421653e-01
5.959999999999999964e+00 5.259139147826846772e-01
5.980000000000000426e+00 5.234369485009719991e-01
6.000000000000000000e+00 5.209756645084255844e-01
6.020000000000000462e+00 5.185299307771960020e-01
6.040000000000000036e+00 5.160996199120835293e-01
6.060000000000000497e+00 5.136846026356938211e-01
6.080000000000000071e+00 5.112847546132933685e-01
6.100000000000000533e+00 5.088999492332498820e-01
6.120000000000000107e+00 5.065300651406885457e-01
6.140000000000000568e+00 5.041749783079605418e-01
6.160000000000000142e+00 5.018345702821553900e-01
6.179999999999999716e+00 4.995087195403153935e-01
6.200000000000000178e+00 4.971973104562176782e-01
6.219999999999999751e+00 4.949002239350239751e-01
6.240000000000000213e+00 4.926173471044376639e-01
6.259999999999999787e+00 4.903485632234755864e-01
6.280000000000000249e+00 4.880937621034415197e-01
6.299999999999999822e+00 4.858528292854770170e-01
6.320000000000000284e+00 4.836256571965097950e-01
6.339999999999999858e+00 4.814121335902025733e-01
6.360000000000000320e+00 4.792121534433901320e-01
6.379999999999999893e+00 4.770256066550287999e-01
6.400000000000000355e+00 4.748523906883362899e-01
6.419999999999999929e+00 4.726923975222890872e-01
6.440000000000000391e+00 4.705455270450658589e-01
6.459999999999999964e+00 4.684116732526193427e-01
6.480000000000000426e+00 4.662907383987081045e-01
6.500000000000000000e+00 4.641826184350155704e-01
6.520000000000000462e+00 4.620872179234591925e-01
6.540000000000000036e+00 4.600044347122901334e-01
6.560000000000000497e+00 4.579341756160645871e-01
6.580000000000000071e+00 4.558763403220985055e-01
6.600000000000000533e+00 4.538308378438982160e-01
6.620000000000000107e+00 4.517975696522934514e-01
6.640000000000000568e+00 4.497764469078172622e-01
6.660000000000000142e+00 4.477673728107847140e-01
6.679999999999999716e+00 4.457702606185396377e-01
6.700000000000000178e+00 4.437850152086891820e-01
6.719999999999999751e+00 4.418115518868207525e-01
6.740000000000000213e+00 4.398497771570417103e-01
6.759999999999999787e+00 4.378996083262064465e-01
6.780000000000000249e+00 4.359609534758444593e-01
6.799999999999999822e+00 4.340337318686439683e-01
6.820000000000000284e+00 4.321178531157621183e-01
6.839999999999999858e+00 4.302132383917776082e-01
6.860000000000000320e+00 4.283197987912927829e-01
6.879999999999999893e+00 4.264374573582583317e-01
6.900000000000000355e+00 4.245661266257315103e-01
6.919999999999999929e+00 4.227057314659106169e-01
6.940000000000000391e+00 4.208561858068175510e-01
6.959999999999999964e+00 4.190174163091133774e-01
6.980000000000000426e+00 4.171893382533830019e-01
7.000000000000000000e+00 4.153718800502679276e-01
7.020000000000000462e+00 4.135649582919315170e-01
7.040000000000000036e+00 4.117685031017608299e-01
7.060000000000000497e+00 4.099824323435092843e-01
7.080000000000000071e+00 4.082066778172873112e-01
7.100000000000000533e+00 4.064411586197839710e-01
7.120000000000000107e+00 4.046858081929883832e-01
7.140000000000000568e+00 4.029405468287729497e-01
7.160000000000000142e+00 4.012053095772942779e-01
7.179999999999999716e+00 3.994800178891182441e-01
7.200000000000000178e+00 3.977646083899523677e-01
7.219999999999999751e+00 3.960590036533871983e-01
7.240000000000000213e+00 3.943631418491324037e-01
7.259999999999999787e+00 3.926769466393250085e-01
7.280000000000000249e+00 3.910003577071499148e-01
7.299999999999999822e+00 3.893332997695543307e-01
7.320000000000000284e+00 3.876757139936698460e-01
7.339999999999999858e+00 3.860275261186507656e-01
7.360000000000000320e+00 3.843886787670113825e-01
7.379999999999999893e+00 3.827590986681721485e-01
7.400000000000000355e+00 3.811387298724011052e-01
7.419999999999999929e+00 3.795275000685116584e-01
7.440000000000000391e+00 3.779253547077990327e-01
7.459999999999999964e+00 3.763322224082033540e-01
7.480000000000000426e+00 3.747480499961974298e-01
7.500000000000000000e+00 3.731727669895898436e-01
7.520000000000000462e+00 3.716063215650266538e-01
7.540000000000000036e+00 3.700486441114750891e-01
7.560000000000000497e+00 3.684996841315799632e-01
7.580000000000000071e+00 3.669593728576986957e-01
7.600000000000000533e+00 3.654276610950923376e-01
7.620000000000000107e+00 3.639044808922390906e-01
7.640000000000000568e+00 3.623897843344153769e-01
7.660000000000000142e+00 3.608835042598504406e-01
7.679999999999999716e+00 3.593855940119782821e-01
7.700000000000000178e+00 3.578959871928374947e-01
7.719999999999999751e+00 3.564146383828986075e-01
7.740000000000000213e+00 3.549414819229323448e-01
7.759999999999999787e+00 3.534764736100293736e-01
7.780000000000000249e+00 3.520195484989909196e-01
7.799999999999999822e+00 3.505706635837956275e-01
7.820000000000000284e+00 3.491297546093994342e-01
7.839999999999999858e+00 3.476967797476062660e-01
7.860000000000000320e+00 3.462716754099701144e-01
7.879999999999999893e+00 3.448544009277103584e-01
