# Electrodo circular de radio 6 mm y espesor 710.0 um.
# Volumen de simulacion (convencion z,y,x):
# N: 1024 x 1024 x 1024 | voxelSize:  0.02mm x 0.02mm x 0.02mm | FOV:  20.48mm x 20.48mm x 20.48mm
# 
# z [mm]		 delta[ppm]
0.000000000000000000e+00 3.983889331402636458e+00
2.000000000000000042e-02 3.958913553525813978e+00
4.000000000000000083e-02 3.933461125729095897e+00
5.999999999999999778e-02 3.907557989142279364e+00
8.000000000000000167e-02 3.881229918666833090e+00
1.000000000000000056e-01 3.854502663285952035e+00
1.199999999999999956e-01 3.827401856123635149e+00
1.400000000000000133e-01 3.799953002474190100e+00
1.600000000000000033e-01 3.772181403613151129e+00
1.799999999999999933e-01 3.744112131909405505e+00
2.000000000000000111e-01 3.715769965604174274e+00
2.200000000000000011e-01 3.687179363854979464e+00
2.399999999999999911e-01 3.658364407879340696e+00
2.600000000000000089e-01 3.629348779436108785e+00
2.800000000000000266e-01 3.600155707573169828e+00
2.999999999999999889e-01 3.570807951744279674e+00
3.200000000000000067e-01 3.541327753963422698e+00
3.400000000000000244e-01 3.511736827202573519e+00
3.599999999999999867e-01 3.482056312821500743e+00
3.800000000000000044e-01 3.452306774565398584e+00
4.000000000000000222e-01 3.422508161184846465e+00
4.199999999999999845e-01 3.392679806126789988e+00
4.400000000000000022e-01 3.362840395129462756e+00
4.600000000000000200e-01 3.333007971531304126e+00
4.799999999999999822e-01 3.303199908598605905e+00
5.000000000000000000e-01 3.273432920236415189e+00
5.200000000000000178e-01 3.243723037680923404e+00
5.400000000000000355e-01 3.214085625292210757e+00
5.600000000000000533e-01 3.184535361217911476e+00
5.799999999999999600e-01 3.155086257864117449e+00
5.999999999999999778e-01 3.125751646051156296e+00
6.199999999999999956e-01 3.096544199704905242e+00
6.400000000000000133e-01 3.067475923023928353e+00
6.600000000000000311e-01 3.038558178897557749e+00
6.800000000000000488e-01 3.009801678561768501e+00
7.000000000000000666e-01 2.981216513238037269e+00
7.199999999999999734e-01 2.952812145780306707e+00
7.399999999999999911e-01 2.924597445030372889e+00
7.600000000000000089e-01 2.896580678952777710e+00
7.800000000000000266e-01 2.868769551221022507e+00
8.000000000000000444e-01 2.841171195382679926e+00
8.200000000000000622e-01 2.813792213218157645e+00
8.399999999999999689e-01 2.786638669497562670e+00
8.599999999999999867e-01 2.759716131691253072e+00
8.800000000000000044e-01 2.733029664936731606e+00
9.000000000000000222e-01 2.706583872721581407e+00
9.200000000000000400e-01 2.680382891710984428e+00
9.400000000000000577e-01 2.654430433069325801e+00
9.599999999999999645e-01 2.628729776858304223e+00
9.799999999999999822e-01 2.603283813708888061e+00
1.000000000000000000e+00 2.578095038536059036e+00
1.020000000000000018e+00 2.553165592318495491e+00
1.040000000000000036e+00 2.528497254931314053e+00
1.060000000000000053e+00 2.504091486833552871e+00
1.080000000000000071e+00 2.479949420853746478e+00
1.100000000000000089e+00 2.456071903625713482e+00
1.120000000000000107e+00 2.432459486209264998e+00
1.140000000000000124e+00 2.409112465150820892e+00
1.159999999999999920e+00 2.386030871848962676e+00
1.179999999999999938e+00 2.363214513149090923e+00
1.199999999999999956e+00 2.340662959401508925e+00
1.219999999999999973e+00 2.318375584527214261e+00
1.239999999999999991e+00 2.296351552736327850e+00
1.260000000000000009e+00 2.274589858026448308e+00
1.280000000000000027e+00 2.253089309557846143e+00
1.300000000000000044e+00 2.231848570565728274e+00
1.320000000000000062e+00 2.210866142401697321e+00
1.340000000000000080e+00 2.190140402857889246e+00
1.360000000000000098e+00 2.169669588904597823e+00
1.380000000000000115e+00 2.149451834437228204e+00
1.400000000000000133e+00 2.129485151747003258e+00
1.419999999999999929e+00 2.109767468711960081e+00
1.439999999999999947e+00 2.090296609051395915e+00
1.459999999999999964e+00 2.071070328989506937e+00
1.479999999999999982e+00 2.052086296346595340e+00
1.500000000000000000e+00 2.033342126709412945e+00
1.520000000000000018e+00 2.014835361420754811e+00
1.540000000000000036e+00 1.996563503293824704e+00
1.560000000000000053e+00 1.978523993560898253e+00
1.580000000000000071e+00 1.960714247170998625e+00
1.600000000000000089e+00 1.943131628763261842e+00
1.620000000000000107e+00 1.925773487587651989e+00
1.640000000000000124e+00 1.908637132565525141e+00
1.660000000000000142e+00 1.891719866872778155e+00
1.679999999999999938e+00 1.875018962152557922e+00
1.699999999999999956e+00 1.858531692798915724e+00
1.719999999999999973e+00 1.842255309382218043e+00
1.739999999999999991e+00 1.826187072669593014e+00
1.760000000000000009e+00 1.810324226324520724e+00
1.780000000000000027e+00 1.794664030698001955e+00
1.800000000000000044e+00 1.779203734858802566e+00
1.820000000000000062e+00 1.763940610186784275e+00
1.840000000000000080e+00 1.748871921790272399e+00
1.860000000000000098e+00 1.733994961930178658e+00
1.880000000000000115e+00 1.719307020875798786e+00
1.900000000000000133e+00 1.704805420185588671e+00
1.919999999999999929e+00 1.690487483052239615e+00
1.939999999999999947e+00 1.676350567463058550e+00
1.959999999999999964e+00 1.662392036080177160e+00
1.979999999999999982e+00 1.648609289300706049e+00
2.000000000000000000e+00 1.634999734717312636e+00
2.020000000000000018e+00 1.621560820095563793e+00
2.040000000000000036e+00 1.608290002455411205e+00
2.060000000000000053e+00 1.595184780980537953e+00
2.080000000000000071e+00 1.582242665760706046e+00
2.100000000000000089e+00 1.569461210645399341e+00
2.120000000000000107e+00 1.556837981682718475e+00
2.140000000000000124e+00 1.544370589927297699e+00
2.160000000000000142e+00 1.532056659610926852e+00
2.180000000000000160e+00 1.519893860912519434e+00
2.200000000000000178e+00 1.507879877891814102e+00
2.220000000000000195e+00 1.496012441227153600e+00
2.240000000000000213e+00 1.484289295943302722e+00
2.260000000000000231e+00 1.472708234120914339e+00
2.280000000000000249e+00 1.461267062446041543e+00
2.300000000000000266e+00 1.449963634893521869e+00
2.319999999999999840e+00 1.438795820125602365e+00
2.339999999999999858e+00 1.427761534149860845e+00
2.359999999999999876e+00 1.416858707591370559e+00
2.379999999999999893e+00 1.406085318324380884e+00
2.399999999999999911e+00 1.395439358642426075e+00
2.419999999999999929e+00 1.384918867861707481e+00
2.439999999999999947e+00 1.374521899410881209e+00
2.459999999999999964e+00 1.364246553402961526e+00
2.479999999999999982e+00 1.354090943666652835e+00
2.500000000000000000e+00 1.344053230282538314e+00
2.520000000000000018e+00 1.334131586575479034e+00
2.540000000000000036e+00 1.324324231609961489e+00
2.560000000000000053e+00 1.314629397163330049e+00
2.580000000000000071e+00 1.305045360174331703e+00
2.600000000000000089e+00 1.295570409714853932e+00
2.620000000000000107e+00 1.286202879385037301e+00
2.640000000000000124e+00 1.276941114301521241e+00
2.660000000000000142e+00 1.267783503431830550e+00
2.680000000000000160e+00 1.258728446615297925e+00
2.700000000000000178e+00 1.249774386828879980e+00
2.720000000000000195e+00 1.240919777257353251e+00
2.740000000000000213e+00 1.232163113482225958e+00
2.760000000000000231e+00 1.223502900616119993e+00
2.780000000000000249e+00 1.214937685406065837e+00
2.800000000000000266e+00 1.206466023447455793e+00
2.819999999999999840e+00 1.198086511192623771e+00
2.839999999999999858e+00 1.189797753258264423e+00
2.859999999999999876e+00 1.181598394329924417e+00
2.879999999999999893e+00 1.173487086577271965e+00
2.899999999999999911e+00 1.165462521444875721e+00
2.919999999999999929e+00 1.157523397188354286e+00
2.939999999999999947e+00 1.149668450541581288e+00
2.959999999999999964e+00 1.141896424387306652e+00
2.979999999999999982e+00 1.134206099290779868e+00
3.000000000000000000e+00 1.126596261317127867e+00
3.020000000000000018e+00 1.119065733421286124e+00
3.040000000000000036e+00 1.111613343424981748e+00
3.060000000000000053e+00 1.104237955252725278e+00
3.080000000000000071e+00 1.096938437080120954e+00
3.100000000000000089e+00 1.089713692405579248e+00
3.120000000000000107e+00 1.082562628382229608e+00
3.140000000000000124e+00 1.075484186715005563e+00
3.160000000000000142e+00 1.068477312187311901e+00
3.180000000000000160e+00 1.061540983373104652e+00
3.200000000000000178e+00 1.054674181370064412e+00
3.220000000000000195e+00 1.047875920316278631e+00
3.240000000000000213e+00 1.041145216340625401e+00
3.260000000000000231e+00 1.034481117873678357e+00
3.280000000000000249e+00 1.027882674826605669e+00
3.300000000000000266e+00 1.021348968685949599e+00
3.320000000000000284e+00 1.014879081931318705e+00
3.339999999999999858e+00 1.008472127903760285e+00
3.359999999999999876e+00 1.002127220473123304e+00
3.379999999999999893e+00 9.958435036697680376e-01
3.399999999999999911e+00 9.896201216115381172e-01
3.419999999999999929e+00 9.834562478886208492e-01
3.439999999999999947e+00 9.773510557606408522e-01
3.459999999999999964e+00 9.713037472845723608e-01
3.479999999999999982e+00 9.653135237915304590e-01
3.500000000000000000e+00 9.593796147477342551e-01
3.520000000000000018e+00 9.535012485211521449e-01
3.540000000000000036e+00 9.476776809655916844e-01
3.560000000000000053e+00 9.419081664864806802e-01
3.580000000000000071e+00 9.361919863382432982e-01
3.600000000000000089e+00 9.305284199990726535e-01
3.620000000000000107e+00 9.249167731718797025e-01
3.640000000000000124e+00 9.193563494770156108e-01
3.660000000000000142e+00 9.138464781472038778e-01
3.680000000000000160e+00 9.083864860477395275e-01
3.700000000000000178e+00 9.029757250559038440e-01
3.720000000000000195e+00 8.976135444173454214e-01
3.740000000000000213e+00 8.922993178006114467e-01
3.760000000000000231e+00 8.870324159989348978e-01
3.780000000000000249e+00 8.818122336506326597e-01
3.800000000000000266e+00 8.766381622947286845e-01
3.820000000000000284e+00 8.715096167480843592e-01
3.839999999999999858e+00 8.664260085238262299e-01
3.859999999999999876e+00 8.613867718562019382e-01
3.879999999999999893e+00 8.563913374899565500e-01
3.899999999999999911e+00 8.514391583440606981e-01
3.919999999999999929e+00 8.465296836807135739e-01
3.939999999999999947e+00 8.416623843991996035e-01
3.959999999999999964e+00 8.368367275924237791e-01
3.979999999999999982e+00 8.320522014622586671e-01
4.000000000000000000e+00 8.273082902720674259e-01
4.020000000000000462e+00 8.226044988750547127e-01
4.040000000000000036e+00 8.179403280703946288e-01
4.060000000000000497e+00 8.133152987362510800e-01
4.080000000000000071e+00 8.087289275976895508e-01
4.099999999999999645e+00 8.041807509561436085e-01
4.120000000000000107e+00 7.996703008764962650e-01
4.139999999999999680e+00 7.951971285048846649e-01
4.160000000000000142e+00 7.907607806829203279e-01
4.179999999999999716e+00 7.863608228458548455e-01
4.200000000000000178e+00 7.819968160710653038e-01
4.219999999999999751e+00 7.776683395487736794e-01
4.240000000000000213e+00 7.733749680724868458e-01
4.259999999999999787e+00 7.691162940745548404e-01
4.280000000000000249e+00 7.648919055654890276e-01
4.299999999999999822e+00 7.607014077267699736e-01
4.320000000000000284e+00 7.565444013065131257e-01
4.339999999999999858e+00 7.524205037620657066e-01
4.360000000000000320e+00 7.483293281187145540e-01
4.379999999999999893e+00 7.442705036547461184e-01
4.400000000000000355e+00 7.402436552304124673e-01
4.419999999999999929e+00 7.362484235082558115e-01
4.440000000000000391e+00 7.322844447588038319e-01
4.459999999999999964e+00 7.283513706090618545e-01
4.480000000000000426e+00 7.244488483319728722e-01
4.500000000000000000e+00 7.205765401160875161e-01
4.520000000000000462e+00 7.167341038450409929e-01
4.540000000000000036e+00 7.129212118815687615e-01
4.560000000000000497e+00 7.091375323437916212e-01
4.580000000000000071e+00 7.053827473968381501e-01
4.600000000000000533e+00 7.016565350319893257e-01
4.620000000000000107e+00 6.979585868592795839e-01
4.639999999999999680e+00 6.942885903961070193e-01
4.660000000000000142e+00 6.906462463543026065e-01
4.679999999999999716e+00 6.870312514440397589e-01
4.700000000000000178e+00 6.834433151489760494e-01
4.719999999999999751e+00 6.798821430518716680e-01
4.740000000000000213e+00 6.763474530914969085e-01
4.759999999999999787e+00 6.728389594156185538e-01
4.780000000000000249e+00 6.693563881134740878e-01
4.799999999999999822e+00 6.658994616023489188e-01
4.820000000000000284e+00 6.624679138295349601e-01
4.839999999999999858e+00 6.590614751979512187e-01
4.860000000000000320e+00 6.556798872315992011e-01
4.879999999999999893e+00 6.523228880462711432e-01
4.900000000000000355e+00 6.489902264726081782e-01
4.919999999999999929e+00 6.456816480771877531e-01
4.940000000000000391e+00 6.423969087373753162e-01
4.959999999999999964e+00 6.391357612186753245e-01
4.980000000000000426e+00 6.358979681956562491e-01
5.000000000000000000e+00 6.326832893906970678e-01
5.020000000000000462e+00 6.294914940353704136e-01
5.040000000000000036e+00 6.263223485762823284e-01
5.060000000000000497e+00 6.231756285713888621e-01
5.080000000000000071e+00 6.200511069679054410e-01
5.100000000000000533e+00 6.169485654280844056e-01
5.120000000000000107e+00 6.138677831847735300e-01
5.139999999999999680e+00 6.108085477912841288e-01
5.160000000000000142e+00 6.077706445594133200e-01
5.179999999999999716e+00 6.047538667281104896e-01
5.200000000000000178e+00 6.017580054893955088e-01
5.219999999999999751e+00 5.987828595705946277e-01
5.240000000000000213e+00 5.958282258528535547e-01
5.259999999999999787e+00 5.928939083617753569e-01
5.280000000000000249e+00 5.899797094838417078e-01
5.299999999999999822e+00 5.870854383603729687e-01
5.320000000000000284e+00 5.842109027064111837e-01
5.339999999999999858e+00 5.813559166029949044e-01
5.360000000000000320e+00 5.785202929236804570e-01
5.379999999999999893e+00 5.757038505201743650e-01
5.400000000000000355e+00 5.729064072609623137e-01
5.419999999999999929e+00 5.701277866053772181e-01
5.440000000000000391e+00 5.673678112594310319e-01
5.459999999999999964e+00 5.646263091334736695e-01
5.480000000000000426e+00 5.619031076195825092e-01
5.500000000000000000e+00 5.591980389280136743e-01
5.520000000000000462e+00 5.565109349911384617e-01
5.540000000000000036e+00 5.538416321739567660e-01
5.560000000000000497e+00 5.511899668088373616e-01
5.580000000000000071e+00 5.485557792753837925e-01
5.600000000000000533e+00 5.459389101709084535e-01
5.620000000000000107e+00 5.433392037549863440e-01
5.639999999999999680e+00 5.407565047598541508e-01
5.660000000000000142e+00 5.381906611950290076e-01
5.679999999999999716e+00 5.356415218024769276e-01
5.700000000000000178e+00 5.331089382167223389e-01
5.719999999999999751e+00 5.305927630689126762e-01
5.740000000000000213e+00 5.280928514978517896e-01
5.759999999999999787e+00 5.256090599077622993e-01
5.780000000000000249e+00 5.231412468257270465e-01
5.799999999999999822e+00 5.206892723172160675e-01
5.820000000000000284e+00 5.182529981854383516e-01
5.839999999999999858e+00 5.158322880493796392e-01
5.860000000000000320e+00 5.134270068806000564e-01
5.879999999999999893e+00 5.110370217478207300e-01
5.900000000000000355e+00 5.086622006866934331e-01
5.919999999999999929e+00 5.063024141156682312e-01
5.940000000000000391e+00 5.039575330343027959e-01
5.959999999999999964e+00 5.016274311144097720e-01
5.980000000000000426e+00 4.993119822224675874e-01
6.000000000000000000e+00 4.970110631907754262e-01
6.020000000000000462e+00 4.947245506595421283e-01
6.040000000000000036e+00 4.924523245320280296e-01
6.060000000000000497e+00 4.901942641318987048e-01
6.080000000000000071e+00 4.879502523470790054e-01
6.100000000000000533e+00 4.857201710979487941e-01
6.120000000000000107e+00 4.835039061738922173e-01
6.140000000000000568e+00 4.813013420079237936e-01
6.160000000000000142e+00 4.791123672106589182e-01
6.179999999999999716e+00 4.769368686469552254e-01
6.200000000000000178e+00 4.747747376712992406e-01
6.219999999999999751e+00 4.726258635020157972e-01
6.240000000000000213e+00 4.704901401628488466e-01
6.259999999999999787e+00 4.683674591502951512e-01
6.280000000000000249e+00 4.662577170853883235e-01
6.299999999999999822e+00 4.641608076696962515e-01
6.320000000000000284e+00 4.620766300521184644e-01
6.339999999999999858e+00 4.600050800690666519e-01
6.360000000000000320e+00 4.579460593303287252e-01
6.379999999999999893e+00 4.558994657389288108e-01
6.400000000000000355e+00 4.538652033009206166e-01
6.419999999999999929e+00 4.518431719203977459e-01
6.440000000000000391e+00 4.498332779373181989e-01
6.459999999999999964e+00 4.478354231931101492e-01
6.480000000000000426e+00 4.458495163014613016e-01
6.500000000000000000e+00 4.438754609799163697e-01
6.520000000000000462e+00 4.419131680578082255e-01
6.540000000000000036e+00 4.399625430692173933e-01
6.560000000000000497e+00 4.380234990030592579e-01
6.580000000000000071e+00 4.360959431527327013e-01
6.600000000000000533e+00 4.341797906126194095e-01
6.620000000000000107e+00 4.322749503796964876e-01
6.640000000000000568e+00 4.303813396015628845e-01
6.660000000000000142e+00 4.284988689252516858e-01
6.679999999999999716e+00 4.266274575011348436e-01
6.700000000000000178e+00 4.247670175741113940e-01
6.719999999999999751e+00 4.229174702486175330e-01
6.740000000000000213e+00 4.210787293173223200e-01
6.759999999999999787e+00 4.192507177916863226e-01
6.780000000000000249e+00 4.174333509632385253e-01
6.799999999999999822e+00 4.156265537050435888e-01
6.820000000000000284e+00 4.138302427605514699e-01
6.839999999999999858e+00 4.120443448205654002e-01
6.860000000000000320e+00 4.102687780345801172e-01
6.879999999999999893e+00 4.085034708687586558e-01
6.900000000000000355e+00 4.067483428346419516e-01
6.919999999999999929e+00 4.050033241328253042e-01
6.940000000000000391e+00 4.032683355938250225e-01
6.959999999999999964e+00 4.015433091131289101e-01
6.980000000000000426e+00 3.998281667989360688e-01
7.000000000000000000e+00 3.981228422034372438e-01
7.020000000000000462e+00 3.964272586720429814e-01
7.040000000000000036e+00 3.947413513767462079e-01
7.060000000000000497e+00 3.930650448613868253e-01
7.080000000000000071e+00 3.913982758821070718e-01
7.100000000000000533e+00 3.897409701431142626e-01
7.120000000000000107e+00 3.880930659502611069e-01
7.140000000000000568e+00 3.864544901316558922e-01
7.160000000000000142e+00 3.848251825095845291e-01
7.179999999999999716e+00 3.832050710002219973e-01
7.200000000000000178e+00 3.815940969101320190e-01
7.219999999999999751e+00 3.799921892092424369e-01
7.240000000000000213e+00 3.783992906573300785e-01
7.259999999999999787e+00 3.768153312443029979e-01
7.280000000000000249e+00 3.752402551531289765e-01
7.299999999999999822e+00 3.736739933613716924e-01
7.320000000000000284e+00 3.721164914461844719e-01
7.339999999999999858e+00 3.705676813409271575e-01
7.360000000000000320e+00 3.690275099889128718e-01
7.379999999999999893e+00 3.674959102488156715e-01
7.400000000000000355e+00 3.659728304030313017e-01
7.419999999999999929e+00 3.644582042054477222e-01
7.440000000000000391e+00 3.629519812513790633e-01
7.459999999999999964e+00 3.614540961611578118e-01
7.480000000000000426e+00 3.599644998177383703e-01
7.500000000000000000e+00 3.584831276794340771e-01
7.520000000000000462e+00 3.570099318924130349e-01
7.540000000000000036e+00 3.555448487257882317e-01
7.560000000000000497e+00 3.540878315653514519e-01
7.580000000000000071e+00 3.526388174640542328e-01
7.600000000000000533e+00 3.511977610245175518e-01
7.620000000000000107e+00 3.497646000578154557e-01
7.640000000000000568e+00 3.483392903613866110e-01
7.660000000000000142e+00 3.469217704788741807e-01
7.679999999999999716e+00 3.455119973812679768e-01
7.700000000000000178e+00 3.441099103204117160e-01
7.719999999999999751e+00 3.427154674203157780e-01
7.740000000000000213e+00 3.413286086167656719e-01
7.759999999999999787e+00 3.399492931669652052e-01
7.780000000000000249e+00 3.385774616675292781e-01
7.799999999999999822e+00 3.372130744897089416e-01
7.820000000000000284e+00 3.358560728678891549e-01
7.839999999999999858e+00 3.345064182688894383e-01
7.860000000000000320e+00 3.331640525429090394e-01
7.879999999999999893e+00 3.318289382345031013e-01
